X[s],a: EMG RMS 1-1,X[s].1,a: EMG RMS 1-2,X[s].2,a: EMG RMS 1-3,X[s].3,a: EMG RMS 1-4
124.00500000000432,4.672966e-05,124.00500000000432,3.495659e-05,124.00500000000432,2.1111e-05,124.00500000000432,7.111343e-06
124.02000000000432,5.135858e-05,124.02000000000432,3.49195e-05,124.02000000000432,2.130562e-05,124.02000000000432,8.169621e-06
124.03500000000432,5.658063e-05,124.03500000000432,3.742474e-05,124.03500000000432,2.241777e-05,124.03500000000432,9.010862e-06
124.05000000000432,6.449562e-05,124.05000000000432,3.928999e-05,124.05000000000432,2.226329e-05,124.05000000000432,9.661178e-06
124.06500000000432,6.797397e-05,124.06500000000432,4.129603e-05,124.06500000000432,2.16506e-05,124.06500000000432,9.86034e-06
124.08000000000432,7.037168e-05,124.08000000000432,4.14625e-05,124.08000000000432,2.145977e-05,124.08000000000432,9.917319e-06
124.09500000000432,7.04679e-05,124.09500000000432,4.077044e-05,124.09500000000432,2.118893e-05,124.09500000000432,1.012258e-05
124.11000000000432,7.035387e-05,124.11000000000432,4.046246e-05,124.11000000000432,2.142101e-05,124.11000000000432,1.012118e-05
124.12500000000432,6.965744e-05,124.12500000000432,4.04339e-05,124.12500000000432,2.136372e-05,124.12500000000432,1.020573e-05
124.14000000000432,6.90587e-05,124.14000000000432,4.046141e-05,124.14000000000432,2.129437e-05,124.14000000000432,1.020021e-05
124.15500000000432,7.115679e-05,124.15500000000432,4.071443e-05,124.15500000000432,2.08721e-05,124.15500000000432,1.084545e-05
124.17000000000432,6.627537e-05,124.17000000000432,3.966324e-05,124.17000000000432,2.025906e-05,124.17000000000432,1.045123e-05
124.18500000000432,7.107935e-05,124.18500000000432,4.103734e-05,124.18500000000432,2.001351e-05,124.18500000000432,1.121328e-05
124.20000000000432,7.22801e-05,124.20000000000432,4.291922e-05,124.20000000000432,1.298854e-05,124.20000000000432,1.127967e-05
124.21500000000432,7.141941e-05,124.21500000000432,4.378935e-05,124.21500000000432,1.289274e-05,124.21500000000432,1.109584e-05
124.23000000000432,7.510405e-05,124.23000000000432,4.248775e-05,124.23000000000432,1.193383e-05,124.23000000000432,1.105641e-05
124.24500000000432,7.847073e-05,124.24500000000432,4.321817e-05,124.24500000000432,1.196802e-05,124.24500000000432,1.130337e-05
124.26000000000433,8.936502e-05,124.26000000000433,4.525366e-05,124.26000000000433,1.186161e-05,124.26000000000433,1.142732e-05
124.27500000000433,8.678455e-05,124.27500000000433,4.593001e-05,124.27500000000433,9.532005e-06,124.27500000000433,1.085065e-05
124.29000000000433,8.332933e-05,124.29000000000433,4.153548e-05,124.29000000000433,8.806888e-06,124.29000000000433,9.976799e-06
124.30500000000433,8.110159e-05,124.30500000000433,4.062715e-05,124.30500000000433,1.770551e-05,124.30500000000433,9.580649e-06
124.32000000000433,8.064802e-05,124.32000000000433,4.156023e-05,124.32000000000433,2.063863e-05,124.32000000000433,9.562988e-06
124.33500000000433,0.0001194482,124.33500000000433,4.797201e-05,124.33500000000433,2.047898e-05,124.33500000000433,1.043369e-05
124.35000000000433,0.0001332348,124.35000000000433,4.980458e-05,124.35000000000433,1.998957e-05,124.35000000000433,1.05251e-05
124.36500000000433,0.0001609945,124.36500000000433,6.093089e-05,124.36500000000433,1.987437e-05,124.36500000000433,1.061704e-05
124.38000000000433,0.0001826038,124.38000000000433,6.314679e-05,124.38000000000433,1.994089e-05,124.38000000000433,1.21189e-05
124.39500000000433,0.000186006,124.39500000000433,6.490081e-05,124.39500000000433,1.995854e-05,124.39500000000433,1.223459e-05
124.41000000000433,0.0001897098,124.41000000000433,6.844031e-05,124.41000000000433,1.996983e-05,124.41000000000433,1.208864e-05
124.42500000000433,0.0001930419,124.42500000000433,7.122229e-05,124.42500000000433,2.000295e-05,124.42500000000433,1.299938e-05
124.44000000000433,0.0002009917,124.44000000000433,7.56747e-05,124.44000000000433,2.005219e-05,124.44000000000433,1.530008e-05
124.45500000000433,0.0002040397,124.45500000000433,7.543642e-05,124.45500000000433,2.011742e-05,124.45500000000433,1.559463e-05
124.47000000000433,0.0002105076,124.47000000000433,8.557036e-05,124.47000000000433,2.017755e-05,124.47000000000433,1.731534e-05
124.48500000000433,0.0002115407,124.48500000000433,8.855173e-05,124.48500000000433,2.019569e-05,124.48500000000433,1.752317e-05
124.50000000000433,0.000209313,124.50000000000433,8.861661e-05,124.50000000000433,2.022566e-05,124.50000000000433,1.753523e-05
124.51500000000433,0.0002070806,124.51500000000433,9.098358e-05,124.51500000000433,2.020057e-05,124.51500000000433,1.751915e-05
124.53000000000434,0.0002070937,124.53000000000434,9.022767e-05,124.53000000000434,2.027018e-05,124.53000000000434,1.737868e-05
124.54500000000434,0.0002063231,124.54500000000434,9.021736e-05,124.54500000000434,1.947341e-05,124.54500000000434,1.74926e-05
124.56000000000434,0.0002062482,124.56000000000434,9.081295e-05,124.56000000000434,1.258869e-05,124.56000000000434,1.757214e-05
124.57500000000434,0.0002055829,124.57500000000434,9.261705e-05,124.57500000000434,1.072266e-05,124.57500000000434,1.860403e-05
124.59000000000434,0.0001808966,124.59000000000434,8.991394e-05,124.59000000000434,1.209912e-05,124.59000000000434,1.844662e-05
124.60500000000434,0.0001765811,124.60500000000434,8.876258e-05,124.60500000000434,1.201735e-05,124.60500000000434,1.841299e-05
124.62000000000434,0.0001495603,124.62000000000434,8.299683e-05,124.62000000000434,1.205597e-05,124.62000000000434,1.824005e-05
124.63500000000434,0.0001304664,124.63500000000434,8.247719e-05,124.63500000000434,1.187941e-05,124.63500000000434,1.705302e-05
124.65000000000434,0.0001295568,124.65000000000434,8.520941e-05,124.65000000000434,1.183307e-05,124.65000000000434,1.716007e-05
124.66500000000434,0.0001319557,124.66500000000434,8.702202e-05,124.66500000000434,1.272116e-05,124.66500000000434,1.790803e-05
124.68000000000434,0.0001317462,124.68000000000434,8.656221e-05,124.68000000000434,1.361236e-05,124.68000000000434,1.635561e-05
124.69500000000434,0.0001180538,124.69500000000434,8.261986e-05,124.69500000000434,1.408334e-05,124.69500000000434,1.503165e-05
124.71000000000434,0.0001133701,124.71000000000434,7.871861e-05,124.71000000000434,1.406733e-05,124.71000000000434,1.440182e-05
124.72500000000434,0.0001018604,124.72500000000434,7.043331e-05,124.72500000000434,1.414323e-05,124.72500000000434,1.2838e-05
124.74000000000434,0.0001020401,124.74000000000434,7.180496e-05,124.74000000000434,1.415717e-05,124.74000000000434,1.300696e-05
124.75500000000434,0.000101123,124.75500000000434,6.94048e-05,124.75500000000434,1.413127e-05,124.75500000000434,1.264675e-05
124.77000000000434,0.0009030742,124.77000000000434,0.0003997358,124.77000000000434,3.225327e-05,124.77000000000434,0.0001437132
124.78500000000435,0.00131402,124.78500000000435,0.0005028274,124.78500000000435,4.354159e-05,124.78500000000435,0.0001747385
124.80000000000435,0.001477951,124.80000000000435,0.00050887,124.80000000000435,4.767539e-05,124.80000000000435,0.0001794476
124.81500000000435,0.00148466,124.81500000000435,0.0005146406,124.81500000000435,4.761626e-05,124.81500000000435,0.0001803153
124.83000000000435,0.001516421,124.83000000000435,0.0005226984,124.83000000000435,4.794851e-05,124.83000000000435,0.0001823858
124.84500000000435,0.001542293,124.84500000000435,0.000525761,124.84500000000435,4.830385e-05,124.84500000000435,0.0001834236
124.86000000000435,0.001550572,124.86000000000435,0.000526401,124.86000000000435,4.853079e-05,124.86000000000435,0.0001836143
124.87500000000435,0.001551143,124.87500000000435,0.0005260849,124.87500000000435,4.857431e-05,124.87500000000435,0.0001836107
124.89000000000435,0.001551387,124.89000000000435,0.0005266404,124.89000000000435,4.856851e-05,124.89000000000435,0.0001836706
124.90500000000435,0.00155069,124.90500000000435,0.0005260937,124.90500000000435,4.857605e-05,124.90500000000435,0.0001836469
124.92000000000435,0.001549868,124.92000000000435,0.0005255875,124.92000000000435,4.834699e-05,124.92000000000435,0.0001836391
124.93500000000435,0.001549216,124.93500000000435,0.0005255547,124.93500000000435,4.800136e-05,124.93500000000435,0.000183635
124.95000000000435,0.001549206,124.95000000000435,0.0005257939,124.95000000000435,4.802043e-05,124.95000000000435,0.0001836341
124.96500000000435,0.001549313,124.96500000000435,0.0005258563,124.96500000000435,4.795762e-05,124.96500000000435,0.0001837307
124.98000000000435,0.001549374,124.98000000000435,0.0005257648,124.98000000000435,4.794998e-05,124.98000000000435,0.0001837509
124.99500000000435,0.001549391,124.99500000000435,0.0005255407,124.99500000000435,4.796467e-05,124.99500000000435,0.0001837764
125.01000000000435,0.001507884,125.01000000000435,0.0004260023,125.01000000000435,4.782378e-05,125.01000000000435,0.0001425998
125.02500000000435,0.001200317,125.02500000000435,0.0002962067,125.02500000000435,3.670952e-05,125.02500000000435,0.0001017464
125.04000000000435,0.0006316917,125.04000000000435,0.0001402127,125.04000000000435,1.87308e-05,125.04000000000435,4.457211e-05
125.05500000000436,0.0003897966,125.05500000000436,0.0001369678,125.05500000000436,1.404829e-05,125.05500000000436,3.676128e-05
125.07000000000436,0.0003686939,125.07000000000436,0.0001061241,125.07000000000436,1.375237e-05,125.07000000000436,3.173239e-05
125.08500000000436,0.0002636788,125.08500000000436,7.811845e-05,125.08500000000436,1.17038e-05,125.08500000000436,2.116632e-05
125.10000000000436,0.0001549497,125.10000000000436,6.152768e-05,125.10000000000436,9.700467e-06,125.10000000000436,1.461542e-05
125.11500000000436,0.0001141723,125.11500000000436,6.441213e-05,125.11500000000436,9.107272e-06,125.11500000000436,1.356882e-05
125.13000000000436,0.0001135771,125.13000000000436,6.466946e-05,125.13000000000436,9.269777e-06,125.13000000000436,1.366194e-05
125.14500000000436,0.0001113607,125.14500000000436,6.830392e-05,125.14500000000436,1.33659e-05,125.14500000000436,1.343528e-05
125.16000000000436,0.0001161501,125.16000000000436,7.217751e-05,125.16000000000436,1.396582e-05,125.16000000000436,1.33543e-05
125.17500000000436,0.0001169173,125.17500000000436,7.201515e-05,125.17500000000436,1.414223e-05,125.17500000000436,1.322286e-05
125.19000000000436,0.0001209772,125.19000000000436,7.405823e-05,125.19000000000436,1.417705e-05,125.19000000000436,1.315343e-05
125.20500000000436,0.0001244138,125.20500000000436,7.837445e-05,125.20500000000436,1.421377e-05,125.20500000000436,1.323989e-05
125.22000000000436,0.0001211754,125.22000000000436,7.835288e-05,125.22000000000436,1.423753e-05,125.22000000000436,1.201852e-05
125.23500000000436,0.0001173359,125.23500000000436,8.306282e-05,125.23500000000436,1.422566e-05,125.23500000000436,1.198096e-05
125.25000000000436,0.0001187085,125.25000000000436,8.395432e-05,125.25000000000436,1.837777e-05,125.25000000000436,1.163499e-05
125.26500000000436,0.0001160695,125.26500000000436,8.195032e-05,125.26500000000436,1.836857e-05,125.26500000000436,1.08012e-05
125.28000000000436,0.0001075568,125.28000000000436,8.217142e-05,125.28000000000436,1.845578e-05,125.28000000000436,1.075677e-05
125.29500000000436,0.0001076445,125.29500000000436,8.228329e-05,125.29500000000436,1.842141e-05,125.29500000000436,1.231378e-05
125.31000000000437,0.0001116071,125.31000000000437,8.262071e-05,125.31000000000437,1.7466e-05,125.31000000000437,1.228629e-05
125.32500000000437,0.0001090755,125.32500000000437,8.409716e-05,125.32500000000437,2.187843e-05,125.32500000000437,1.247629e-05
125.34000000000437,0.0001066656,125.34000000000437,8.277657e-05,125.34000000000437,2.233026e-05,125.34000000000437,1.251575e-05
125.35500000000437,0.0001003145,125.35500000000437,8.185211e-05,125.35500000000437,2.44732e-05,125.35500000000437,1.295705e-05
125.37000000000437,0.0001001457,125.37000000000437,8.344657e-05,125.37000000000437,2.455882e-05,125.37000000000437,1.322392e-05
125.38500000000437,0.0001019565,125.38500000000437,7.981527e-05,125.38500000000437,2.52182e-05,125.38500000000437,1.336801e-05
125.40000000000437,0.0001028,125.40000000000437,7.999579e-05,125.40000000000437,2.536135e-05,125.40000000000437,1.353868e-05
125.41500000000437,0.0001024759,125.41500000000437,8.150079e-05,125.41500000000437,2.563701e-05,125.41500000000437,1.366503e-05
125.43000000000437,0.0001080269,125.43000000000437,8.444852e-05,125.43000000000437,2.713609e-05,125.43000000000437,1.45352e-05
125.44500000000437,0.0001041493,125.44500000000437,7.734427e-05,125.44500000000437,2.733109e-05,125.44500000000437,1.451775e-05
125.46000000000437,0.0001013412,125.46000000000437,7.770042e-05,125.46000000000437,2.79145e-05,125.46000000000437,1.421971e-05
125.47500000000437,0.000113784,125.47500000000437,7.527229e-05,125.47500000000437,2.852993e-05,125.47500000000437,1.433417e-05
125.49000000000437,0.0001145498,125.49000000000437,7.156325e-05,125.49000000000437,2.813666e-05,125.49000000000437,1.414821e-05
125.50500000000437,0.0001153127,125.50500000000437,7.218571e-05,125.50500000000437,2.646648e-05,125.50500000000437,1.41691e-05
125.52000000000437,0.0001151376,125.52000000000437,7.158273e-05,125.52000000000437,2.684958e-05,125.52000000000437,1.410133e-05
125.53500000000437,0.0001155876,125.53500000000437,7.513574e-05,125.53500000000437,2.688157e-05,125.53500000000437,1.392137e-05
125.55000000000437,0.0001254595,125.55000000000437,7.462272e-05,125.55000000000437,2.717033e-05,125.55000000000437,1.2689e-05
125.56500000000437,0.0001334281,125.56500000000437,7.339082e-05,125.56500000000437,2.655734e-05,125.56500000000437,1.259429e-05
125.58000000000438,0.0001342172,125.58000000000438,7.528502e-05,125.58000000000438,2.462355e-05,125.58000000000438,1.248532e-05
125.59500000000438,0.0001380004,125.59500000000438,7.696432e-05,125.59500000000438,2.471833e-05,125.59500000000438,1.271894e-05
125.61000000000438,0.0001425133,125.61000000000438,8.603236e-05,125.61000000000438,2.287681e-05,125.61000000000438,1.297877e-05
125.62500000000438,0.000149671,125.62500000000438,8.864633e-05,125.62500000000438,2.252684e-05,125.62500000000438,1.361339e-05
125.64000000000438,0.0001478677,125.64000000000438,9.004999e-05,125.64000000000438,2.116765e-05,125.64000000000438,1.384833e-05
125.65500000000438,0.0001480977,125.65500000000438,8.545538e-05,125.65500000000438,1.947124e-05,125.65500000000438,1.424446e-05
125.67000000000438,0.0001484743,125.67000000000438,9.159018e-05,125.67000000000438,1.960462e-05,125.67000000000438,1.543574e-05
125.68500000000438,0.0001455055,125.68500000000438,9.298272e-05,125.68500000000438,1.77071e-05,125.68500000000438,1.496214e-05
125.70000000000438,0.0001558032,125.70000000000438,0.0001075818,125.70000000000438,1.78915e-05,125.70000000000438,1.732429e-05
125.71500000000438,0.0001676615,125.71500000000438,0.0001149697,125.71500000000438,1.652697e-05,125.71500000000438,1.851675e-05
125.73000000000438,0.0001690974,125.73000000000438,0.0001166474,125.73000000000438,1.671597e-05,125.73000000000438,1.85593e-05
125.74500000000438,0.0001723247,125.74500000000438,0.0001172972,125.74500000000438,1.832019e-05,125.74500000000438,1.855854e-05
125.76000000000438,0.0001718556,125.76000000000438,0.0001174959,125.76000000000438,1.914512e-05,125.76000000000438,1.880286e-05
125.77500000000438,0.000171718,125.77500000000438,0.0001177587,125.77500000000438,1.869467e-05,125.77500000000438,1.921855e-05
125.79000000000438,0.0001687284,125.79000000000438,0.0001148907,125.79000000000438,1.873907e-05,125.79000000000438,1.930193e-05
125.80500000000438,0.0001632966,125.80500000000438,0.0001146518,125.80500000000438,1.865998e-05,125.80500000000438,1.937187e-05
125.82000000000438,0.0001566776,125.82000000000438,0.0001147379,125.82000000000438,1.846571e-05,125.82000000000438,1.933693e-05
125.83500000000438,0.0001559131,125.83500000000438,0.0001122496,125.83500000000438,1.899887e-05,125.83500000000438,1.92866e-05
125.85000000000439,0.0001493072,125.85000000000439,0.0001094114,125.85000000000439,1.857826e-05,125.85000000000439,1.879612e-05
125.86500000000439,0.0001473264,125.86500000000439,0.0001049517,125.86500000000439,1.884028e-05,125.86500000000439,1.869693e-05
125.88000000000439,0.0001387799,125.88000000000439,9.999449e-05,125.88000000000439,1.983322e-05,125.88000000000439,1.771028e-05
125.89500000000439,0.00013777,125.89500000000439,9.914293e-05,125.89500000000439,2.023402e-05,125.89500000000439,1.725993e-05
125.91000000000439,0.0001336535,125.91000000000439,9.960053e-05,125.91000000000439,2.161413e-05,125.91000000000439,1.614933e-05
125.92500000000439,0.0001299328,125.92500000000439,8.886773e-05,125.92500000000439,2.103078e-05,125.92500000000439,1.478789e-05
125.94000000000439,0.0001292779,125.94000000000439,8.571363e-05,125.94000000000439,2.126988e-05,125.94000000000439,1.449736e-05
125.95500000000439,0.0001062321,125.95500000000439,6.381472e-05,125.95500000000439,2.089639e-05,125.95500000000439,1.136551e-05
125.97000000000439,9.04262e-05,125.97000000000439,5.90159e-05,125.97000000000439,2.149912e-05,125.97000000000439,9.624658e-06
125.98500000000439,8.122065e-05,125.98500000000439,5.320265e-05,125.98500000000439,1.994159e-05,125.98500000000439,9.858911e-06
126.00000000000439,7.750547e-05,126.00000000000439,5.199101e-05,126.00000000000439,1.985239e-05,126.00000000000439,9.850334e-06
126.01500000000439,7.593857e-05,126.01500000000439,5.103666e-05,126.01500000000439,1.93012e-05,126.01500000000439,9.245431e-06
126.03000000000439,7.590183e-05,126.03000000000439,5.249148e-05,126.03000000000439,1.988146e-05,126.03000000000439,8.599714e-06
126.04500000000439,7.272038e-05,126.04500000000439,5.23216e-05,126.04500000000439,1.977418e-05,126.04500000000439,8.607901e-06
126.0600000000044,7.013307e-05,126.0600000000044,5.111498e-05,126.0600000000044,1.985451e-05,126.0600000000044,8.533942e-06
126.0750000000044,6.933901e-05,126.0750000000044,5.113896e-05,126.0750000000044,1.868336e-05,126.0750000000044,8.484277e-06
126.0900000000044,6.98043e-05,126.0900000000044,5.413132e-05,126.0900000000044,1.873983e-05,126.0900000000044,8.43766e-06
126.1050000000044,7.100757e-05,126.1050000000044,5.305576e-05,126.1050000000044,1.888584e-05,126.1050000000044,8.114256e-06
126.1200000000044,6.863023e-05,126.1200000000044,5.316424e-05,126.1200000000044,2.693444e-05,126.1200000000044,7.862084e-06
126.1350000000044,6.929267e-05,126.1350000000044,5.437046e-05,126.1350000000044,3.185335e-05,126.1350000000044,8.021719e-06
126.1500000000044,7.123989e-05,126.1500000000044,5.493954e-05,126.1500000000044,3.096398e-05,126.1500000000044,8.062008e-06
126.1650000000044,7.23911e-05,126.1650000000044,4.82595e-05,126.1650000000044,3.108974e-05,126.1650000000044,8.260502e-06
126.1800000000044,7.283187e-05,126.1800000000044,4.788883e-05,126.1800000000044,3.082262e-05,126.1800000000044,8.072484e-06
126.1950000000044,7.30395e-05,126.1950000000044,4.844043e-05,126.1950000000044,3.061995e-05,126.1950000000044,7.951166e-06
126.2100000000044,7.012302e-05,126.2100000000044,4.964962e-05,126.2100000000044,3.042427e-05,126.2100000000044,8.103833e-06
126.2250000000044,6.852917e-05,126.2250000000044,4.67595e-05,126.2250000000044,3.003845e-05,126.2250000000044,8.138525e-06
126.2400000000044,6.550165e-05,126.2400000000044,4.718027e-05,126.2400000000044,2.987151e-05,126.2400000000044,7.892485e-06
126.2550000000044,6.870346e-05,126.2550000000044,5.00658e-05,126.2550000000044,2.991392e-05,126.2550000000044,8.284342e-06
126.2700000000044,7.04725e-05,126.2700000000044,5.000245e-05,126.2700000000044,2.944355e-05,126.2700000000044,8.304722e-06
126.2850000000044,7.098435e-05,126.2850000000044,4.800753e-05,126.2850000000044,3.061719e-05,126.2850000000044,8.205751e-06
126.3000000000044,7.075159e-05,126.3000000000044,4.878497e-05,126.3000000000044,3.096762e-05,126.3000000000044,8.121197e-06
126.3150000000044,6.948897e-05,126.3150000000044,4.998611e-05,126.3150000000044,3.095897e-05,126.3150000000044,8.387425e-06
126.3300000000044,7.289393e-05,126.3300000000044,4.724293e-05,126.3300000000044,3.073704e-05,126.3300000000044,8.465993e-06
126.3450000000044,8.045093e-05,126.3450000000044,4.765796e-05,126.3450000000044,3.13411e-05,126.3450000000044,8.774839e-06
126.3600000000044,8.019243e-05,126.3600000000044,4.952577e-05,126.3600000000044,3.203415e-05,126.3600000000044,8.8754e-06
126.3750000000044,8.703351e-05,126.3750000000044,4.819583e-05,126.3750000000044,2.208159e-05,126.3750000000044,8.995216e-06
126.3900000000044,8.965318e-05,126.3900000000044,4.750074e-05,126.3900000000044,2.003954e-05,126.3900000000044,8.750726e-06
126.4050000000044,9.230946e-05,126.4050000000044,4.905507e-05,126.4050000000044,1.998111e-05,126.4050000000044,8.676361e-06
126.4200000000044,9.189451e-05,126.4200000000044,5.06062e-05,126.4200000000044,1.99663e-05,126.4200000000044,9.21185e-06
126.43500000000441,9.225969e-05,126.43500000000441,5.011474e-05,126.43500000000441,2.015449e-05,126.43500000000441,9.221021e-06
126.45000000000441,9.446424e-05,126.45000000000441,4.902491e-05,126.45000000000441,2.022705e-05,126.45000000000441,9.065413e-06
126.46500000000441,9.38606e-05,126.46500000000441,4.849071e-05,126.46500000000441,2.034856e-05,126.46500000000441,8.808488e-06
126.48000000000441,9.492954e-05,126.48000000000441,4.855429e-05,126.48000000000441,2.041146e-05,126.48000000000441,8.752336e-06
126.49500000000441,9.465909e-05,126.49500000000441,4.812446e-05,126.49500000000441,2.045971e-05,126.49500000000441,8.410905e-06
126.51000000000441,9.148846e-05,126.51000000000441,4.564512e-05,126.51000000000441,2.108029e-05,126.51000000000441,8.186846e-06
126.52500000000441,8.892414e-05,126.52500000000441,4.514832e-05,126.52500000000441,1.991897e-05,126.52500000000441,8.148903e-06
126.54000000000441,8.965868e-05,126.54000000000441,4.696031e-05,126.54000000000441,1.879237e-05,126.54000000000441,8.131598e-06
126.55500000000441,8.965349e-05,126.55500000000441,4.690808e-05,126.55500000000441,1.852207e-05,126.55500000000441,8.042764e-06
126.57000000000441,9.005999e-05,126.57000000000441,4.629567e-05,126.57000000000441,1.86116e-05,126.57000000000441,7.799122e-06
126.58500000000441,8.75927e-05,126.58500000000441,4.541214e-05,126.58500000000441,1.890224e-05,126.58500000000441,7.555081e-06
126.60000000000441,8.150977e-05,126.60000000000441,4.343632e-05,126.60000000000441,1.355532e-05,126.60000000000441,7.40061e-06
126.61500000000441,7.455285e-05,126.61500000000441,4.467597e-05,126.61500000000441,1.280394e-05,126.61500000000441,6.94904e-06
126.63000000000442,7.484138e-05,126.63000000000442,4.518824e-05,126.63000000000442,1.307609e-05,126.63000000000442,6.942956e-06
126.64500000000442,7.662019e-05,126.64500000000442,4.432555e-05,126.64500000000442,1.371853e-05,126.64500000000442,6.96726e-06
126.66000000000442,7.710184e-05,126.66000000000442,4.544098e-05,126.66000000000442,1.540926e-05,126.66000000000442,6.417902e-06
126.67500000000442,8.356768e-05,126.67500000000442,4.355809e-05,126.67500000000442,1.528534e-05,126.67500000000442,6.246608e-06
126.69000000000442,8.081466e-05,126.69000000000442,4.297334e-05,126.69000000000442,1.520032e-05,126.69000000000442,6.116717e-06
126.70500000000442,8.266861e-05,126.70500000000442,4.3762e-05,126.70500000000442,1.50887e-05,126.70500000000442,7.053663e-06
126.72000000000442,8.319652e-05,126.72000000000442,4.325075e-05,126.72000000000442,1.533227e-05,126.72000000000442,7.142966e-06
126.73500000000442,8.431413e-05,126.73500000000442,4.336654e-05,126.73500000000442,1.945242e-05,126.73500000000442,7.320229e-06
126.75000000000442,8.538843e-05,126.75000000000442,4.45269e-05,126.75000000000442,1.972211e-05,126.75000000000442,7.759284e-06
126.76500000000442,8.559127e-05,126.76500000000442,4.480066e-05,126.76500000000442,1.988642e-05,126.76500000000442,7.675319e-06
126.78000000000442,8.461616e-05,126.78000000000442,4.264098e-05,126.78000000000442,2.002477e-05,126.78000000000442,7.682656e-06
126.79500000000442,8.468739e-05,126.79500000000442,4.170707e-05,126.79500000000442,1.991897e-05,126.79500000000442,7.664298e-06
126.81000000000442,8.706523e-05,126.81000000000442,4.140096e-05,126.81000000000442,2.072377e-05,126.81000000000442,7.702799e-06
126.82500000000442,8.859801e-05,126.82500000000442,4.327517e-05,126.82500000000442,2.277189e-05,126.82500000000442,7.847737e-06
126.84000000000442,9.235294e-05,126.84000000000442,4.505619e-05,126.84000000000442,2.338532e-05,126.84000000000442,8.063755e-06
126.85500000000442,9.562635e-05,126.85500000000442,4.422374e-05,126.85500000000442,2.337809e-05,126.85500000000442,8.026986e-06
126.87000000000442,9.887532e-05,126.87000000000442,4.213618e-05,126.87000000000442,2.358148e-05,126.87000000000442,8.162721e-06
126.88500000000442,9.278056e-05,126.88500000000442,4.270667e-05,126.88500000000442,2.397014e-05,126.88500000000442,8.166172e-06
126.90000000000443,8.943215e-05,126.90000000000443,4.39813e-05,126.90000000000443,2.411252e-05,126.90000000000443,8.157542e-06
126.91500000000443,7.809302e-05,126.91500000000443,4.152531e-05,126.91500000000443,2.343947e-05,126.91500000000443,8.248557e-06
126.93000000000443,7.533589e-05,126.93000000000443,4.167092e-05,126.93000000000443,2.361669e-05,126.93000000000443,7.682656e-06
126.94500000000443,7.682143e-05,126.94500000000443,4.100712e-05,126.94500000000443,2.375823e-05,126.94500000000443,7.410121e-06
126.96000000000443,7.466877e-05,126.96000000000443,4.076456e-05,126.96000000000443,2.411019e-05,126.96000000000443,6.942956e-06
126.97500000000443,7.498692e-05,126.97500000000443,4.176108e-05,126.97500000000443,2.375764e-05,126.97500000000443,7.333686e-06
126.99000000000443,7.320036e-05,126.99000000000443,4.013879e-05,126.99000000000443,2.039282e-05,126.99000000000443,7.29903e-06
127.00500000000443,7.219995e-05,127.00500000000443,4.229634e-05,127.00500000000443,2.034718e-05,127.00500000000443,7.15282e-06
127.02000000000443,7.257496e-05,127.02000000000443,4.291626e-05,127.02000000000443,1.949293e-05,127.02000000000443,7.358615e-06
127.03500000000443,7.519253e-05,127.03500000000443,4.265881e-05,127.03500000000443,1.963047e-05,127.03500000000443,7.584854e-06
127.05000000000443,7.627691e-05,127.05000000000443,4.220466e-05,127.05000000000443,1.936387e-05,127.05000000000443,7.737468e-06
127.06500000000443,7.477453e-05,127.06500000000443,4.107748e-05,127.06500000000443,1.707283e-05,127.06500000000443,7.577422e-06
127.08000000000443,7.380501e-05,127.08000000000443,4.013914e-05,127.08000000000443,1.582953e-05,127.08000000000443,7.30096e-06
127.09500000000443,6.496112e-05,127.09500000000443,3.866002e-05,127.09500000000443,1.647832e-05,127.09500000000443,7.1921e-06
127.11000000000443,5.649492e-05,127.11000000000443,3.861955e-05,127.11000000000443,1.64458e-05,127.11000000000443,7.217518e-06
127.12500000000443,5.409825e-05,127.12500000000443,3.740704e-05,127.12500000000443,1.54631e-05,127.12500000000443,6.830453e-06
127.14000000000443,5.413053e-05,127.14000000000443,4.252288e-05,127.14000000000443,1.488852e-05,127.14000000000443,6.780777e-06
127.15500000000443,5.374401e-05,127.15500000000443,4.119254e-05,127.15500000000443,1.377898e-05,127.15500000000443,6.673986e-06
127.17000000000444,5.378933e-05,127.17000000000444,4.073968e-05,127.17000000000444,1.388388e-05,127.17000000000444,6.690851e-06
127.18500000000444,5.258559e-05,127.18500000000444,4.049761e-05,127.18500000000444,1.384222e-05,127.18500000000444,7.184261e-06
127.20000000000444,5.032035e-05,127.20000000000444,4.015001e-05,127.20000000000444,1.360822e-05,127.20000000000444,7.164627e-06
127.21500000000444,4.949162e-05,127.21500000000444,4.163067e-05,127.21500000000444,1.322286e-05,127.21500000000444,7.001547e-06
127.23000000000444,4.659532e-05,127.23000000000444,3.987718e-05,127.23000000000444,1.416711e-05,127.23000000000444,6.402519e-06
127.24500000000444,4.662403e-05,127.24500000000444,4.057962e-05,127.24500000000444,1.450707e-05,127.24500000000444,6.413511e-06
127.26000000000444,4.594381e-05,127.26000000000444,3.801294e-05,127.26000000000444,1.442918e-05,127.26000000000444,6.226279e-06
127.27500000000444,4.422342e-05,127.27500000000444,3.746461e-05,127.27500000000444,1.411731e-05,127.27500000000444,5.790191e-06
127.29000000000444,3.77142e-05,127.29000000000444,3.644571e-05,127.29000000000444,1.376978e-05,127.29000000000444,5.721665e-06
127.30500000000444,3.37331e-05,127.30500000000444,3.650403e-05,127.30500000000444,1.366503e-05,127.30500000000444,5.516089e-06
127.32000000000444,3.151099e-05,127.32000000000444,3.649708e-05,127.32000000000444,1.306639e-05,127.32000000000444,5.584614e-06
127.33500000000444,3.07375e-05,127.33500000000444,3.719897e-05,127.33500000000444,1.37493e-05,127.33500000000444,5.694519e-06
127.35000000000444,3.106436e-05,127.35000000000444,4.019595e-05,127.35000000000444,1.378205e-05,127.35000000000444,5.696992e-06
127.36500000000444,3.417247e-05,127.36500000000444,4.104592e-05,127.36500000000444,1.494235e-05,127.36500000000444,5.819312e-06
127.38000000000444,3.847154e-05,127.38000000000444,4.143633e-05,127.38000000000444,1.523457e-05,127.38000000000444,5.792623e-06
127.39500000000444,4.13049e-05,127.39500000000444,3.499687e-05,127.39500000000444,1.57689e-05,127.39500000000444,5.802342e-06
127.41000000000444,4.168984e-05,127.41000000000444,3.524874e-05,127.41000000000444,1.604783e-05,127.41000000000444,5.731505e-06
127.42500000000445,4.433222e-05,127.42500000000445,3.561213e-05,127.42500000000445,1.572327e-05,127.42500000000445,5.208738e-06
127.44000000000445,4.64903e-05,127.44000000000445,3.591464e-05,127.44000000000445,1.562441e-05,127.44000000000445,5.063375e-06
127.45500000000445,4.413159e-05,127.45500000000445,3.607353e-05,127.45500000000445,1.542753e-05,127.45500000000445,5.018664e-06
127.47000000000445,4.58505e-05,127.47000000000445,3.421943e-05,127.47000000000445,1.489703e-05,127.47000000000445,4.905105e-06
127.48500000000445,4.624513e-05,127.48500000000445,3.276974e-05,127.48500000000445,1.555846e-05,127.48500000000445,4.824024e-06
127.50000000000445,4.828606e-05,127.50000000000445,3.203283e-05,127.50000000000445,1.58402e-05,127.50000000000445,4.853136e-06
127.51500000000445,5.162285e-05,127.51500000000445,3.181795e-05,127.51500000000445,1.587041e-05,127.51500000000445,4.809401e-06
127.53000000000445,5.291272e-05,127.53000000000445,3.225546e-05,127.53000000000445,1.570176e-05,127.53000000000445,5.124215e-06
127.54500000000445,6.219284e-05,127.54500000000445,3.495418e-05,127.54500000000445,1.536898e-05,127.54500000000445,5.077266e-06
127.56000000000445,7.190376e-05,127.56000000000445,3.475857e-05,127.56000000000445,1.542296e-05,127.56000000000445,5.115961e-06
127.57500000000445,7.238876e-05,127.57500000000445,3.456187e-05,127.57500000000445,1.557294e-05,127.57500000000445,5.206033e-06
127.59000000000445,7.429505e-05,127.59000000000445,3.339525e-05,127.59000000000445,1.542022e-05,127.59000000000445,5.644828e-06
127.60500000000445,7.367052e-05,127.60500000000445,3.159759e-05,127.60500000000445,1.566493e-05,127.60500000000445,5.711809e-06
127.62000000000445,7.238721e-05,127.62000000000445,3.221656e-05,127.62000000000445,1.421377e-05,127.62000000000445,5.622323e-06
127.63500000000445,7.34455e-05,127.63500000000445,3.217281e-05,127.63500000000445,1.382899e-05,127.63500000000445,5.721665e-06
127.65000000000445,7.241464e-05,127.65000000000445,3.146759e-05,127.65000000000445,1.263114e-05,127.65000000000445,5.819312e-06
127.66500000000445,7.171289e-05,127.66500000000445,3.152975e-05,127.66500000000445,1.287853e-05,127.66500000000445,6.037908e-06
127.68000000000445,6.959472e-05,127.68000000000445,3.186705e-05,127.68000000000445,1.336379e-05,127.68000000000445,6.021555e-06
127.69500000000446,6.924e-05,127.69500000000446,3.125558e-05,127.69500000000446,1.361856e-05,127.69500000000446,6.051891e-06
127.71000000000446,6.999474e-05,127.71000000000446,3.04904e-05,127.71000000000446,1.363407e-05,127.71000000000446,6.086705e-06
127.72500000000446,7.075338e-05,127.72500000000446,3.085688e-05,127.72500000000446,1.319726e-05,127.72500000000446,6.151165e-06
127.74000000000446,7.092122e-05,127.74000000000446,3.11992e-05,127.74000000000446,1.194327e-05,127.74000000000446,6.183143e-06
127.75500000000446,6.719025e-05,127.75500000000446,3.185689e-05,127.75500000000446,1.158038e-05,127.75500000000446,6.325044e-06
127.77000000000446,6.667419e-05,127.77000000000446,3.254545e-05,127.77000000000446,1.27753e-05,127.77000000000446,6.239839e-06
127.78500000000446,6.19998e-05,127.78500000000446,3.362226e-05,127.78500000000446,1.288947e-05,127.78500000000446,6.144291e-06
127.80000000000446,4.955307e-05,127.80000000000446,3.088335e-05,127.80000000000446,1.265788e-05,127.80000000000446,6.158032e-06
127.81500000000446,4.574931e-05,127.81500000000446,3.072879e-05,127.81500000000446,1.259205e-05,127.81500000000446,5.927241e-06
127.83000000000446,4.338797e-05,127.83000000000446,3.024455e-05,127.83000000000446,1.206882e-05,127.83000000000446,5.824151e-06
127.84500000000446,4.075385e-05,127.84500000000446,2.926263e-05,127.84500000000446,1.015315e-05,127.84500000000446,5.200618e-06
127.86000000000446,4.111347e-05,127.86000000000446,2.893148e-05,127.86000000000446,9.555621e-06,127.86000000000446,5.200618e-06
127.87500000000446,3.921175e-05,127.87500000000446,2.793316e-05,127.87500000000446,9.545296e-06,127.87500000000446,5.329048e-06
127.89000000000446,3.358411e-05,127.89000000000446,2.82436e-05,127.89000000000446,9.539391e-06,127.89000000000446,5.275916e-06
127.90500000000446,3.336191e-05,127.90500000000446,2.854671e-05,127.90500000000446,9.390561e-06,127.90500000000446,5.08004e-06
127.92000000000446,3.321041e-05,127.92000000000446,2.962527e-05,127.92000000000446,8.269024e-06,127.92000000000446,4.982041e-06
127.93500000000446,3.32964e-05,127.93500000000446,2.907961e-05,127.93500000000446,8.032248e-06,127.93500000000446,5.015856e-06
127.95000000000447,3.418607e-05,127.95000000000447,2.970647e-05,127.95000000000447,8.243432e-06,127.95000000000447,5.02147e-06
127.96500000000447,3.475817e-05,127.96500000000447,2.959768e-05,127.96500000000447,8.886504e-06,127.96500000000447,4.967884e-06
127.98000000000447,3.33315e-05,127.98000000000447,3.088198e-05,127.98000000000447,1.016008e-05,127.98000000000447,4.967884e-06
127.99500000000447,3.39151e-05,127.99500000000447,3.233658e-05,127.99500000000447,1.035645e-05,127.99500000000447,5.060592e-06
128.01000000000445,3.546667e-05,128.01000000000445,3.296305e-05,128.01000000000445,1.041477e-05,128.01000000000445,5.024275e-06
128.02500000000444,3.602351e-05,128.02500000000444,3.213075e-05,128.02500000000444,9.136613e-06,128.02500000000444,5.302549e-06
128.04000000000443,3.577906e-05,128.04000000000443,3.135817e-05,128.04000000000443,9.818822e-06,128.04000000000443,5.352786e-06
128.0550000000044,3.854471e-05,128.0550000000044,3.118158e-05,128.0550000000044,1.084675e-05,128.0550000000044,5.399948e-06
128.0700000000044,3.816827e-05,128.0700000000044,3.260382e-05,128.0700000000044,1.09553e-05,128.0700000000044,5.516089e-06
128.08500000000438,3.806109e-05,128.08500000000438,3.309653e-05,128.08500000000438,1.100149e-05,128.08500000000438,5.533936e-06
128.10000000000437,3.774967e-05,128.10000000000437,3.240664e-05,128.10000000000437,1.103728e-05,128.10000000000437,5.485359e-06
128.11500000000436,3.781268e-05,128.11500000000436,3.218375e-05,128.11500000000436,1.099893e-05,128.11500000000436,5.428567e-06
128.13000000000434,3.966679e-05,128.13000000000434,3.211891e-05,128.13000000000434,1.177699e-05,128.13000000000434,5.405162e-06
128.14500000000433,3.969945e-05,128.14500000000433,3.148907e-05,128.14500000000433,1.246839e-05,128.14500000000433,5.521194e-06
128.16000000000432,3.98192e-05,128.16000000000432,3.073475e-05,128.16000000000432,1.295596e-05,128.16000000000432,5.433755e-06
128.1750000000043,4.028347e-05,128.1750000000043,3.020074e-05,128.1750000000043,1.297986e-05,128.1750000000043,5.554263e-06
128.1900000000043,3.922109e-05,128.1900000000043,3.091161e-05,128.1900000000043,1.301129e-05,128.1900000000043,5.559333e-06
128.20500000000428,3.506443e-05,128.20500000000428,3.098853e-05,128.20500000000428,1.253262e-05,128.20500000000428,5.736418e-06
128.22000000000426,3.526472e-05,128.22000000000426,3.101943e-05,128.22000000000426,1.235717e-05,128.22000000000426,5.845879e-06
128.23500000000425,3.536166e-05,128.23500000000425,2.982998e-05,128.23500000000425,1.126092e-05,128.23500000000425,5.721665e-06
128.25000000000423,3.406885e-05,128.25000000000423,2.990591e-05,128.25000000000423,1.114018e-05,128.25000000000423,5.843468e-06
128.26500000000422,3.137928e-05,128.26500000000422,2.888909e-05,128.26500000000422,1.12934e-05,128.26500000000422,6.093644e-06
128.2800000000042,3.180688e-05,128.2800000000042,3.088243e-05,128.2800000000042,1.131334e-05,128.2800000000042,6.023894e-06
128.2950000000042,3.170352e-05,128.2950000000042,3.153377e-05,128.2950000000042,1.075808e-05,128.2950000000042,6.05887e-06
128.31000000000418,2.888763e-05,128.31000000000418,3.010216e-05,128.31000000000418,1.030873e-05,128.31000000000418,6.086705e-06
128.32500000000417,2.900103e-05,128.32500000000417,3.005908e-05,128.32500000000417,1.030053e-05,128.32500000000417,6.153455e-06
128.34000000000415,2.948085e-05,128.34000000000415,3.050288e-05,128.34000000000415,1.046739e-05,128.34000000000415,6.233063e-06
128.35500000000414,3.093667e-05,128.35500000000414,3.081257e-05,128.35500000000414,1.116671e-05,128.35500000000414,6.257873e-06
128.37000000000413,3.004501e-05,128.37000000000413,2.987669e-05,128.37000000000413,1.112627e-05,128.37000000000413,6.221753e-06
128.3850000000041,3.066546e-05,128.3850000000041,3.12398e-05,128.3850000000041,1.093213e-05,128.3850000000041,6.304968e-06
128.4000000000041,3.065214e-05,128.4000000000041,3.141921e-05,128.4000000000041,9.634898e-06,128.4000000000041,6.180865e-06
128.41500000000408,3.168885e-05,128.41500000000408,3.170085e-05,128.41500000000408,1.010726e-05,128.41500000000408,6.373853e-06
128.43000000000407,3.301812e-05,128.43000000000407,3.475655e-05,128.43000000000407,1.007655e-05,128.43000000000407,6.389304e-06
128.44500000000406,3.296988e-05,128.44500000000406,3.493402e-05,128.44500000000406,1.007095e-05,128.44500000000406,6.356147e-06
128.46000000000404,3.262153e-05,128.46000000000404,3.47841e-05,128.46000000000404,1.00289e-05,128.46000000000404,6.393712e-06
128.47500000000403,3.288003e-05,128.47500000000403,3.402954e-05,128.47500000000403,1.004434e-05,128.47500000000403,6.387099e-06
128.49000000000402,3.230302e-05,128.49000000000402,3.366622e-05,128.49000000000402,1.001766e-05,128.49000000000402,6.230803e-06
128.505000000004,3.145774e-05,128.505000000004,3.368128e-05,128.505000000004,1.001907e-05,128.505000000004,5.93674e-06
128.520000000004,3.239534e-05,128.520000000004,3.513947e-05,128.520000000004,9.380055e-06,128.520000000004,5.795054e-06
128.53500000000398,3.309441e-05,128.53500000000398,3.371431e-05,128.53500000000398,9.78145e-06,128.53500000000398,5.792623e-06
128.55000000000396,3.459039e-05,128.55000000000396,3.335304e-05,128.55000000000396,1.046739e-05,128.55000000000396,5.81689e-06
128.56500000000395,3.475047e-05,128.56500000000395,3.309483e-05,128.56500000000395,1.033739e-05,128.56500000000395,5.743781e-06
128.58000000000393,3.44496e-05,128.58000000000393,3.283802e-05,128.58000000000393,1.099124e-05,128.58000000000393,5.704405e-06
128.59500000000392,3.571247e-05,128.59500000000392,3.283245e-05,128.59500000000392,1.122333e-05,128.59500000000392,5.731505e-06
128.6100000000039,3.584004e-05,128.6100000000039,3.267245e-05,128.6100000000039,1.139275e-05,128.6100000000039,5.955692e-06
128.6250000000039,3.589698e-05,128.6250000000039,3.434312e-05,128.6250000000039,1.146792e-05,128.6250000000039,5.826569e-06
128.64000000000388,3.346772e-05,128.64000000000388,3.388684e-05,128.64000000000388,1.147161e-05,128.64000000000388,5.731505e-06
128.65500000000387,3.475168e-05,128.65500000000387,3.378902e-05,128.65500000000387,1.153529e-05,128.65500000000387,5.696992e-06
128.67000000000385,3.390555e-05,128.67000000000385,3.388311e-05,128.67000000000385,1.119191e-05,128.67000000000385,5.672212e-06
128.68500000000384,3.670836e-05,128.68500000000384,3.039184e-05,128.68500000000384,1.117679e-05,128.68500000000384,6.007502e-06
128.70000000000383,3.7008e-05,128.70000000000383,3.060569e-05,128.70000000000383,1.12459e-05,128.70000000000383,5.792623e-06
128.7150000000038,3.644919e-05,128.7150000000038,3.051073e-05,128.7150000000038,1.124966e-05,128.7150000000038,5.780451e-06
128.7300000000038,3.598439e-05,128.7300000000038,2.998447e-05,128.7300000000038,1.139522e-05,128.7300000000038,5.753582e-06
128.74500000000378,3.640897e-05,128.74500000000378,3.10058e-05,128.74500000000378,1.135063e-05,128.74500000000378,5.770695e-06
128.76000000000377,3.600904e-05,128.76000000000377,3.099762e-05,128.76000000000377,1.136923e-05,128.76000000000377,5.865124e-06
128.77500000000376,3.555552e-05,128.77500000000376,3.067189e-05,128.77500000000376,1.192911e-05,128.77500000000376,5.814468e-06
128.79000000000374,3.641091e-05,128.79000000000374,2.938417e-05,128.79000000000374,1.208515e-05,128.79000000000374,5.841057e-06
128.80500000000373,3.58015e-05,128.80500000000373,2.912946e-05,128.80500000000373,1.174225e-05,128.80500000000373,5.741327e-06
128.82000000000372,3.528668e-05,128.82000000000372,2.987999e-05,128.82000000000372,1.206648e-05,128.82000000000372,5.785323e-06
128.8350000000037,3.406471e-05,128.8350000000037,3.005392e-05,128.8350000000037,1.136799e-05,128.8350000000037,5.716739e-06
128.8500000000037,3.518234e-05,128.8500000000037,3.134964e-05,128.8500000000037,1.076069e-05,128.8500000000037,5.682137e-06
128.86500000000368,3.372851e-05,128.86500000000368,3.420461e-05,128.86500000000368,1.037547e-05,128.86500000000368,5.667242e-06
128.88000000000366,3.336444e-05,128.88000000000366,3.210443e-05,128.88000000000366,1.073054e-05,128.88000000000366,5.785323e-06
128.89500000000365,3.566076e-05,128.89500000000365,3.244357e-05,128.89500000000365,1.018777e-05,128.89500000000365,5.706874e-06
128.91000000000363,3.415722e-05,128.91000000000363,3.582942e-05,128.91000000000363,1.003171e-05,128.91000000000363,5.891484e-06
128.92500000000362,3.25225e-05,128.92500000000362,3.616246e-05,128.92500000000362,1.061572e-05,128.92500000000362,5.731505e-06
128.9400000000036,3.358537e-05,128.9400000000036,3.648434e-05,128.9400000000036,1.057317e-05,128.9400000000036,5.389503e-06
128.9550000000036,3.362519e-05,128.9550000000036,3.633539e-05,128.9550000000036,1.051037e-05,128.9550000000036,5.477649e-06
128.97000000000358,3.406306e-05,128.97000000000358,3.674902e-05,128.97000000000358,1.056251e-05,128.97000000000358,5.490492e-06
128.98500000000357,3.539351e-05,128.98500000000357,3.722282e-05,128.98500000000357,1.037819e-05,128.98500000000357,5.632336e-06
129.00000000000355,3.635399e-05,129.00000000000355,3.683784e-05,129.00000000000355,1.023192e-05,129.00000000000355,5.672212e-06
129.01500000000354,3.687263e-05,129.01500000000354,3.674212e-05,129.01500000000354,1.046604e-05,129.01500000000354,5.622323e-06
129.03000000000353,3.606689e-05,129.03000000000353,3.562993e-05,129.03000000000353,8.803689e-06,129.03000000000353,5.433755e-06
129.0450000000035,3.358411e-05,129.0450000000035,3.588678e-05,129.0450000000035,9.116548e-06,129.0450000000035,5.415577e-06
129.0600000000035,3.35925e-05,129.0600000000035,3.634353e-05,129.0600000000035,9.097987e-06,129.0600000000035,5.451871e-06
129.07500000000348,3.393545e-05,129.07500000000348,3.730938e-05,129.07500000000348,8.601352e-06,129.07500000000348,5.541568e-06
129.09000000000347,3.503187e-05,129.09000000000347,3.748904e-05,129.09000000000347,8.494233e-06,129.09000000000347,5.699464e-06
129.10500000000346,3.348035e-05,129.10500000000346,3.693561e-05,129.10500000000346,8.790878e-06,129.10500000000346,6.061194e-06
129.12000000000344,3.301727e-05,129.12000000000344,3.356775e-05,129.12000000000344,8.451005e-06,129.12000000000344,5.773135e-06
129.13500000000343,3.203547e-05,129.13500000000343,3.366204e-05,129.13500000000343,8.079462e-06,129.13500000000343,5.941484e-06
129.15000000000342,3.056331e-05,129.15000000000342,3.311355e-05,129.15000000000342,8.178238e-06,129.15000000000342,5.874723e-06
129.1650000000034,3.049502e-05,129.1650000000034,3.048625e-05,129.1650000000034,7.594135e-06,129.1650000000034,5.912964e-06
129.1800000000034,2.92915e-05,129.1800000000034,2.97458e-05,129.1800000000034,7.262268e-06,129.1800000000034,6.030905e-06
129.19500000000338,2.793013e-05,129.19500000000338,2.8432e-05,129.19500000000338,7.22727e-06,129.19500000000338,6.221753e-06
129.21000000000336,2.814317e-05,129.21000000000336,2.806849e-05,129.21000000000336,7.34712e-06,129.21000000000336,6.203613e-06
129.22500000000335,2.722833e-05,129.22500000000335,2.93237e-05,129.22500000000335,7.396802e-06,129.22500000000335,6.107498e-06
129.24000000000333,2.74083e-05,129.24000000000333,2.885543e-05,129.24000000000333,7.62006e-06,129.24000000000333,5.960421e-06
129.25500000000332,2.706436e-05,129.25500000000332,2.861571e-05,129.25500000000332,7.71559e-06,129.25500000000332,6.040241e-06
129.2700000000033,2.789834e-05,129.2700000000033,2.887885e-05,129.2700000000033,7.525189e-06,129.2700000000033,6.089019e-06
129.2850000000033,2.821266e-05,129.2850000000033,2.910334e-05,129.2850000000033,7.423416e-06,129.2850000000033,6.155743e-06
129.30000000000328,2.785539e-05,129.30000000000328,3.055455e-05,129.30000000000328,6.678206e-06,129.30000000000328,6.327271e-06
129.31500000000327,2.860045e-05,129.31500000000327,3.059326e-05,129.31500000000327,6.857212e-06,129.31500000000327,6.382687e-06
129.33000000000325,2.770021e-05,129.33000000000325,3.027109e-05,129.33000000000325,7.057657e-06,129.33000000000325,6.612493e-06
129.34500000000324,2.75329e-05,129.34500000000324,3.162923e-05,129.34500000000324,7.404416e-06,129.34500000000324,6.275856e-06
129.36000000000323,2.872037e-05,129.36000000000323,3.334333e-05,129.36000000000323,7.03967e-06,129.36000000000323,6.16489e-06
129.3750000000032,2.875273e-05,129.3750000000032,3.519755e-05,129.3750000000032,7.109361e-06,129.3750000000032,6.132817e-06
129.3900000000032,3.006376e-05,129.3900000000032,3.591425e-05,129.3900000000032,7.283574e-06,129.3900000000032,6.086705e-06
129.40500000000318,3.170574e-05,129.40500000000318,3.621034e-05,129.40500000000318,7.472591e-06,129.40500000000318,6.132817e-06
129.42000000000317,3.205657e-05,129.42000000000317,3.709696e-05,129.42000000000317,7.984756e-06,129.42000000000317,5.981653e-06
129.43500000000316,3.239621e-05,129.43500000000316,3.688065e-05,129.43500000000316,8.207468e-06,129.43500000000316,5.972226e-06
129.45000000000314,3.245702e-05,129.45000000000314,3.682331e-05,129.45000000000314,8.622616e-06,129.45000000000314,6.307202e-06
129.46500000000313,3.296903e-05,129.46500000000313,3.63505e-05,129.46500000000313,8.547137e-06,129.46500000000313,6.345057e-06
129.48000000000312,3.324432e-05,129.48000000000312,3.613752e-05,129.48000000000312,8.42262e-06,129.48000000000312,6.409116e-06
129.4950000000031,3.325915e-05,129.4950000000031,3.75067e-05,129.4950000000031,8.303025e-06,129.4950000000031,6.509435e-06
129.5100000000031,3.434353e-05,129.5100000000031,3.751947e-05,129.5100000000031,9.927257e-06,129.5100000000031,6.349495e-06
129.52500000000308,3.450067e-05,129.52500000000308,3.757425e-05,129.52500000000308,9.962669e-06,129.52500000000308,6.621009e-06
129.54000000000306,3.454474e-05,129.54000000000306,3.706239e-05,129.54000000000306,1.04647e-05,129.54000000000306,6.48993e-06
129.55500000000305,3.417577e-05,129.55500000000305,3.652177e-05,129.55500000000305,1.049024e-05,129.55500000000305,6.378271e-06
129.57000000000303,3.443528e-05,129.57000000000303,3.765663e-05,129.57000000000303,1.038497e-05,129.57000000000303,6.340615e-06
129.58500000000302,3.467864e-05,129.58500000000302,3.639543e-05,129.58500000000302,1.035781e-05,129.58500000000302,6.023894e-06
129.600000000003,3.498801e-05,129.600000000003,3.444837e-05,129.600000000003,1.023055e-05,129.600000000003,6.030905e-06
129.615000000003,3.424536e-05,129.615000000003,3.36679e-05,129.615000000003,1.019883e-05,129.615000000003,6.102884e-06
129.63000000000298,3.238273e-05,129.63000000000298,3.247568e-05,129.63000000000298,1.012397e-05,129.63000000000298,6.116717e-06
129.64500000000297,3.051488e-05,129.64500000000297,3.121906e-05,129.64500000000297,1.020711e-05,129.64500000000297,6.030905e-06
129.66000000000295,3.357111e-05,129.66000000000295,3.248436e-05,129.66000000000295,1.104239e-05,129.66000000000295,6.11211e-06
129.67500000000294,3.382318e-05,129.67500000000294,3.129927e-05,129.67500000000294,1.07082e-05,129.67500000000294,6.05887e-06
129.69000000000293,3.339356e-05,129.69000000000293,3.134784e-05,129.69000000000293,1.066206e-05,129.69000000000293,6.095956e-06
129.7050000000029,3.286246e-05,129.7050000000029,3.149265e-05,129.7050000000029,1.026079e-05,129.7050000000029,5.589657e-06
129.7200000000029,3.309611e-05,129.7200000000029,3.155119e-05,129.7200000000029,1.020573e-05,129.7200000000029,5.505864e-06
129.73500000000288,3.266167e-05,129.73500000000288,3.087422e-05,129.73500000000288,1.020021e-05,129.73500000000288,5.402556e-06
129.75000000000287,3.168485e-05,129.75000000000287,3.189577e-05,129.75000000000287,1.014759e-05,129.75000000000287,5.363302e-06
129.76500000000286,3.062225e-05,129.76500000000286,3.138332e-05,129.76500000000286,8.5866e-06,129.76500000000286,5.352786e-06
129.78000000000284,2.97865e-05,129.78000000000284,3.254198e-05,129.78000000000284,8.446003e-06,129.78000000000284,5.035477e-06
129.79500000000283,3.066455e-05,129.79500000000283,3.190593e-05,129.79500000000283,8.248557e-06,129.79500000000283,4.990517e-06
129.81000000000282,3.041501e-05,129.81000000000282,3.040945e-05,129.81000000000282,8.321666e-06,129.81000000000282,4.982041e-06
129.8250000000028,3.019094e-05,129.8250000000028,2.9769e-05,129.8250000000028,8.284342e-06,129.8250000000028,4.83569e-06
129.8400000000028,2.915653e-05,129.8400000000028,2.930736e-05,129.8400000000028,8.465993e-06,129.8400000000028,4.890725e-06
129.85500000000278,2.794828e-05,129.85500000000278,3.147386e-05,129.85500000000278,8.419275e-06,129.85500000000278,4.976383e-06
129.87000000000276,2.845329e-05,129.87000000000276,3.181928e-05,129.87000000000276,8.832443e-06,129.87000000000276,4.936594e-06
129.88500000000275,2.911785e-05,129.88500000000275,3.212417e-05,129.88500000000275,8.840414e-06,129.88500000000275,4.910845e-06
129.90000000000273,2.910672e-05,129.90000000000273,3.195005e-05,129.90000000000273,8.348708e-06,129.90000000000273,5.001795e-06
129.91500000000272,2.548491e-05,129.91500000000272,3.119784e-05,129.91500000000272,8.164447e-06,129.91500000000272,4.947995e-06
129.9300000000027,2.555722e-05,129.9300000000027,3.152573e-05,129.9300000000027,8.444335e-06,129.9300000000027,4.884961e-06
129.9450000000027,2.52489e-05,129.9450000000027,3.115537e-05,129.9450000000027,8.565246e-06,129.9450000000027,4.82986e-06
129.96000000000268,2.547441e-05,129.96000000000268,3.113818e-05,129.96000000000268,8.528988e-06,129.96000000000268,4.930884e-06
129.97500000000267,2.577019e-05,129.97500000000267,3.13712e-05,129.97500000000267,8.581677e-06,129.97500000000267,5.001795e-06
129.99000000000265,2.447608e-05,129.99000000000265,3.167774e-05,129.99000000000265,8.658483e-06,129.99000000000265,5.082812e-06
130.00500000000264,2.441788e-05,130.00500000000264,2.90985e-05,130.00500000000264,8.745896e-06,130.00500000000264,5.181623e-06
130.02000000000263,2.44519e-05,130.02000000000263,2.996473e-05,130.02000000000263,8.622616e-06,130.02000000000263,5.278585e-06
130.0350000000026,2.536912e-05,130.0350000000026,3.010122e-05,130.0350000000026,9.68448e-06,130.0350000000026,5.336972e-06
130.0500000000026,2.55164e-05,130.0500000000026,3.099081e-05,130.0500000000026,9.280408e-06,130.0500000000026,5.313164e-06
130.06500000000258,2.669911e-05,130.06500000000258,3.095397e-05,130.06500000000258,9.23781e-06,130.06500000000258,5.281253e-06
130.08000000000257,2.586567e-05,130.08000000000257,3.106163e-05,130.08000000000257,9.191949e-06,130.08000000000257,5.412975e-06
130.09500000000256,2.613656e-05,130.09500000000256,3.075628e-05,130.09500000000256,9.107272e-06,130.09500000000256,5.299891e-06
130.11000000000254,2.661403e-05,130.11000000000254,2.877379e-05,130.11000000000254,9.560042e-06,130.11000000000254,5.254512e-06
130.12500000000253,2.645477e-05,130.12500000000253,2.943255e-05,130.12500000000253,9.805902e-06,130.12500000000253,5.259872e-06
130.14000000000252,2.64718e-05,130.14000000000252,3.010216e-05,130.14000000000252,1.128466e-05,130.14000000000252,5.200618e-06
130.1550000000025,2.60745e-05,130.1550000000025,3.12362e-05,130.1550000000025,1.075677e-05,130.1550000000025,5.208738e-06
130.1700000000025,2.624467e-05,130.1700000000025,3.326635e-05,130.1700000000025,1.078162e-05,130.1700000000025,5.246463e-06
130.18500000000247,2.65584e-05,130.18500000000247,3.419061e-05,130.18500000000247,1.060244e-05,130.18500000000247,5.197909e-06
130.20000000000246,2.696842e-05,130.20000000000246,3.479665e-05,130.20000000000246,1.072529e-05,130.20000000000246,5.181623e-06
130.21500000000245,2.845775e-05,130.21500000000245,3.436116e-05,130.21500000000245,1.141004e-05,130.21500000000245,5.077266e-06
130.23000000000243,2.8714e-05,130.23000000000243,3.374396e-05,130.23000000000243,1.150349e-05,130.23000000000243,4.982041e-06
130.24500000000242,2.921348e-05,130.24500000000242,3.365032e-05,130.24500000000242,1.135807e-05,130.24500000000242,5.115961e-06
130.2600000000024,2.952239e-05,130.2600000000024,3.337795e-05,130.2600000000024,1.133821e-05,130.2600000000024,4.993339e-06
130.2750000000024,2.916233e-05,130.2750000000024,3.284488e-05,130.2750000000024,1.155481e-05,130.2750000000024,4.942298e-06
130.29000000000238,2.753137e-05,130.29000000000238,3.085734e-05,130.29000000000238,1.10194e-05,130.29000000000238,4.902232e-06
130.30500000000237,2.769309e-05,130.30500000000237,3.224803e-05,130.30500000000237,1.217225e-05,130.30500000000237,4.936594e-06
130.32000000000235,2.675445e-05,130.32000000000235,3.285732e-05,130.32000000000235,1.224149e-05,130.32000000000235,4.873412e-06
130.33500000000234,2.721798e-05,130.33500000000234,3.566984e-05,130.33500000000234,1.216994e-05,130.33500000000234,4.925167e-06
130.35000000000232,2.721384e-05,130.35000000000232,3.576489e-05,130.35000000000232,1.194209e-05,130.35000000000232,4.953686e-06
130.3650000000023,2.856595e-05,130.3650000000023,3.479058e-05,130.3650000000023,1.176383e-05,130.3650000000023,4.87919e-06
130.3800000000023,2.845379e-05,130.3800000000023,3.495579e-05,130.3800000000023,1.123587e-05,130.3800000000023,4.696781e-06
130.39500000000228,2.875665e-05,130.39500000000228,3.516432e-05,130.39500000000228,1.109838e-05,130.39500000000228,4.645514e-06
130.41000000000227,2.932898e-05,130.41000000000227,3.225982e-05,130.41000000000227,1.11465e-05,130.41000000000227,4.522595e-06
130.42500000000226,3.02329e-05,130.42500000000226,3.245529e-05,130.42500000000226,1.104621e-05,130.42500000000226,4.73561e-06
130.44000000000224,3.082811e-05,130.44000000000224,3.099808e-05,130.44000000000224,1.081684e-05,130.44000000000224,4.780021e-06
130.45500000000223,3.401174e-05,130.45500000000223,3.083542e-05,130.45500000000223,1.040259e-05,130.45500000000223,4.729657e-06
130.47000000000222,3.283502e-05,130.47000000000222,3.109155e-05,130.47000000000222,1.029643e-05,130.47000000000222,4.738583e-06
130.4850000000022,3.308248e-05,130.4850000000022,3.213513e-05,130.4850000000022,1.286212e-05,130.4850000000022,4.884961e-06
130.5000000000022,3.174792e-05,130.5000000000022,3.212548e-05,130.5000000000022,1.318017e-05,130.5000000000022,4.838602e-06
130.51500000000217,3.206755e-05,130.51500000000217,3.284874e-05,130.51500000000217,1.312877e-05,130.51500000000217,4.962209e-06
130.53000000000216,3.327947e-05,130.53000000000216,3.428483e-05,130.53000000000216,1.264897e-05,130.53000000000216,4.759348e-06
130.54500000000215,3.507045e-05,130.54500000000215,3.398439e-05,130.54500000000215,1.271008e-05,130.54500000000215,4.910845e-06
130.56000000000213,3.54627e-05,130.56000000000213,3.40829e-05,130.56000000000213,1.165918e-05,130.56000000000213,5.096651e-06
130.57500000000212,3.614375e-05,130.57500000000212,3.262585e-05,130.57500000000212,1.198448e-05,130.57500000000212,5.189773e-06
130.5900000000021,3.583571e-05,130.5900000000021,3.170263e-05,130.5900000000021,1.203258e-05,130.5900000000021,5.159829e-06
130.6050000000021,3.597108e-05,130.6050000000021,3.277275e-05,130.6050000000021,1.22173e-05,130.6050000000021,5.305204e-06
130.62000000000208,3.510337e-05,130.62000000000208,3.172351e-05,130.62000000000208,1.248306e-05,130.62000000000208,5.420777e-06
130.63500000000207,3.558008e-05,130.63500000000207,3.122357e-05,130.63500000000207,1.278192e-05,130.63500000000207,5.510979e-06
130.65000000000205,3.862211e-05,130.65000000000205,3.158377e-05,130.65000000000205,1.233321e-05,130.65000000000205,5.592176e-06
130.66500000000204,3.842355e-05,130.66500000000204,3.33598e-05,130.66500000000204,1.226563e-05,130.66500000000204,5.472503e-06
130.68000000000202,3.86877e-05,130.68000000000202,3.297714e-05,130.68000000000202,1.227711e-05,130.68000000000202,5.967507e-06
130.695000000002,3.731919e-05,130.695000000002,3.333107e-05,130.695000000002,1.25775e-05,130.695000000002,5.960421e-06
130.710000000002,3.519435e-05,130.710000000002,3.405024e-05,130.710000000002,1.250899e-05,130.710000000002,6.082075e-06
130.72500000000198,3.682178e-05,130.72500000000198,3.524115e-05,130.72500000000198,1.216994e-05,130.72500000000198,6.329497e-06
130.74000000000197,3.739499e-05,130.74000000000197,3.654414e-05,130.74000000000197,1.112753e-05,130.74000000000197,6.237581e-06
130.75500000000196,3.784098e-05,130.75500000000196,3.737803e-05,130.75500000000196,1.114524e-05,130.75500000000196,6.242096e-06
130.77000000000194,3.775116e-05,130.77000000000194,3.992166e-05,130.77000000000194,1.525028e-05,130.77000000000194,6.210422e-06
130.78500000000193,3.604892e-05,130.78500000000193,4.057233e-05,130.78500000000193,2.01006e-05,130.78500000000193,6.248863e-06
130.80000000000192,3.651213e-05,130.80000000000192,4.104214e-05,130.80000000000192,2.202154e-05,130.80000000000192,6.05887e-06
130.8150000000019,3.721449e-05,130.8150000000019,3.937988e-05,130.8150000000019,2.278735e-05,130.8150000000019,5.986361e-06
130.8300000000019,3.765589e-05,130.8300000000019,4.022433e-05,130.8300000000019,2.276632e-05,130.8300000000019,5.972226e-06
130.84500000000187,3.763343e-05,130.84500000000187,4.001717e-05,130.84500000000187,2.270374e-05,130.84500000000187,6.128222e-06
130.86000000000186,3.925663e-05,130.86000000000186,4.141967e-05,130.86000000000186,2.259365e-05,130.86000000000186,6.151165e-06
130.87500000000185,4.358395e-05,130.87500000000185,4.332169e-05,130.87500000000185,2.242091e-05,130.87500000000185,6.132817e-06
130.89000000000183,4.755468e-05,130.89000000000183,4.530344e-05,130.89000000000183,2.211346e-05,130.89000000000183,6.351713e-06
130.90500000000182,5.500438e-05,130.90500000000182,4.753187e-05,130.90500000000182,2.217961e-05,130.90500000000182,6.524566e-06
130.9200000000018,6.78221e-05,130.9200000000018,4.761152e-05,130.9200000000018,2.227215e-05,130.9200000000018,6.266871e-06
130.9350000000018,7.236502e-05,130.9350000000018,4.918727e-05,130.9350000000018,2.231006e-05,130.9350000000018,6.026232e-06
130.95000000000178,7.504438e-05,130.95000000000178,5.269236e-05,130.95000000000178,2.223606e-05,130.95000000000178,6.183143e-06
130.96500000000177,7.957134e-05,130.96500000000177,5.424076e-05,130.96500000000177,2.226139e-05,130.96500000000177,6.80152e-06
130.98000000000175,0.0001305881,130.98000000000175,0.0001143073,130.98000000000175,2.272483e-05,130.98000000000175,1.831865e-05
130.99500000000174,0.0001420749,130.99500000000174,0.0001201681,130.99500000000174,2.22791e-05,130.99500000000174,1.911787e-05
131.01000000000172,0.000155433,131.01000000000172,0.0001279324,131.01000000000172,2.238318e-05,131.01000000000172,2.08336e-05
131.0250000000017,0.0001634821,131.0250000000017,0.0001333576,131.0250000000017,1.886942e-05,131.0250000000017,2.163628e-05
131.0400000000017,0.0001687698,131.0400000000017,0.0001368269,131.0400000000017,1.512507e-05,131.0400000000017,2.22405e-05
131.05500000000168,0.000169952,131.05500000000168,0.0001378052,131.05500000000168,1.339853e-05,131.05500000000168,2.229174e-05
131.07000000000167,0.0001757964,131.07000000000167,0.0001381581,131.07000000000167,1.295161e-05,131.07000000000167,2.239074e-05
131.08500000000166,0.0001797061,131.08500000000166,0.0001386366,131.08500000000166,1.491405e-05,131.08500000000166,2.245858e-05
131.10000000000164,0.0001851843,131.10000000000164,0.0001396395,131.10000000000164,1.598803e-05,131.10000000000164,2.283243e-05
131.11500000000163,0.0001917605,131.11500000000163,0.0001409634,131.11500000000163,1.621723e-05,131.11500000000163,2.37345e-05
131.13000000000162,0.0001926846,131.13000000000162,0.0001411814,131.13000000000162,1.745067e-05,131.13000000000162,2.390541e-05
131.1450000000016,0.0001920238,131.1450000000016,0.0001412005,131.1450000000016,1.740298e-05,131.1450000000016,2.401945e-05
131.1600000000016,0.0001937819,131.1600000000016,0.000144098,131.1600000000016,1.754245e-05,131.1600000000016,2.483885e-05
131.17500000000157,0.0001922791,131.17500000000157,0.0001438107,131.17500000000157,1.789937e-05,131.17500000000157,2.491756e-05
131.19000000000156,0.0001920625,131.19000000000156,0.0001433028,131.19000000000156,1.941182e-05,131.19000000000156,2.489889e-05
131.20500000000155,0.0002000732,131.20500000000155,0.0001439501,131.20500000000155,1.960318e-05,131.20500000000155,2.512474e-05
131.22000000000153,0.0001974282,131.22000000000153,0.0001384039,131.22000000000153,1.980052e-05,131.22000000000153,2.41633e-05
131.23500000000152,0.0001660166,131.23500000000152,9.509026e-05,131.23500000000152,2.006202e-05,131.23500000000152,1.760258e-05
131.2500000000015,0.0001567597,131.2500000000015,8.866555e-05,131.2500000000015,2.128776e-05,131.2500000000015,1.659162e-05
131.2650000000015,0.000150805,131.2650000000015,8.084411e-05,131.2650000000015,2.131289e-05,131.2650000000015,1.513252e-05
131.28000000000148,0.0001510375,131.28000000000148,7.312276e-05,131.28000000000148,2.134723e-05,131.28000000000148,1.396582e-05
131.29500000000147,0.0001468558,131.29500000000147,6.894151e-05,131.29500000000147,2.169869e-05,131.29500000000147,1.354284e-05
131.31000000000145,0.0001486247,131.31000000000145,6.672108e-05,131.31000000000145,2.121351e-05,131.31000000000145,1.342479e-05
131.32500000000144,0.000141055,131.32500000000144,6.492968e-05,131.32500000000144,2.109632e-05,131.32500000000144,1.312985e-05
131.34000000000142,0.0001375987,131.34000000000142,6.503503e-05,131.34000000000142,1.946328e-05,131.34000000000142,1.309332e-05
131.3550000000014,0.0001288328,131.3550000000014,6.181753e-05,131.3550000000014,1.889851e-05,131.3550000000014,1.206064e-05
131.3700000000014,0.0001207023,131.3700000000014,5.950439e-05,131.3700000000014,1.903665e-05,131.3700000000014,1.063958e-05
131.38500000000138,0.0001195532,131.38500000000138,5.602218e-05,131.38500000000138,1.798495e-05,131.38500000000138,1.017255e-05
131.40000000000137,0.0001164374,131.40000000000137,5.082729e-05,131.40000000000137,1.857599e-05,131.40000000000137,9.303149e-06
131.41500000000136,0.0001101998,131.41500000000136,4.806764e-05,131.41500000000136,1.845349e-05,131.41500000000136,7.444261e-06
131.43000000000134,0.0001073199,131.43000000000134,4.747375e-05,131.43000000000134,1.782366e-05,131.43000000000134,7.381551e-06
131.44500000000133,0.0001014898,131.44500000000133,4.188637e-05,131.44500000000133,1.846799e-05,131.44500000000133,6.914493e-06
131.46000000000132,8.631385e-05,131.46000000000132,3.863451e-05,131.46000000000132,1.947558e-05,131.46000000000132,5.934367e-06
131.4750000000013,8.578903e-05,131.4750000000013,3.833987e-05,131.4750000000013,1.951676e-05,131.4750000000013,5.898653e-06
131.4900000000013,8.418907e-05,131.4900000000013,3.796066e-05,131.4900000000013,1.91105e-05,131.4900000000013,5.584614e-06
131.50500000000127,7.389371e-05,131.50500000000127,3.754536e-05,131.50500000000127,1.711486e-05,131.50500000000127,5.594695e-06
131.52000000000126,7.263219e-05,131.52000000000126,3.74157e-05,131.52000000000126,1.728766e-05,131.52000000000126,5.716739e-06
131.53500000000125,6.078646e-05,131.53500000000125,3.776608e-05,131.53500000000125,1.769198e-05,131.53500000000125,5.809621e-06
131.55000000000123,5.365271e-05,131.55000000000123,3.842391e-05,131.55000000000123,1.751352e-05,131.55000000000123,5.865124e-06
131.56500000000122,4.988286e-05,131.56500000000122,3.807552e-05,131.56500000000122,1.74232e-05,131.56500000000122,6.244353e-06
131.5800000000012,5.229251e-05,131.5800000000012,3.778212e-05,131.5800000000012,1.738435e-05,131.5800000000012,6.360578e-06
131.5950000000012,5.081315e-05,131.5950000000012,3.828655e-05,131.5950000000012,1.786865e-05,131.5950000000012,6.230803e-06
131.61000000000118,6.278885e-05,131.61000000000118,4.077286e-05,131.61000000000118,1.775318e-05,131.61000000000118,6.64861e-06
131.62500000000117,8.225624e-05,131.62500000000117,4.150461e-05,131.62500000000117,1.777856e-05,131.62500000000117,6.859265e-06
131.64000000000115,8.316147e-05,131.64000000000115,4.099235e-05,131.64000000000115,2.387652e-05,131.64000000000115,7.041671e-06
131.65500000000114,8.399492e-05,131.65500000000114,4.458886e-05,131.65500000000114,2.452438e-05,131.65500000000114,7.538281e-06
131.67000000000112,8.460551e-05,131.67000000000112,4.489677e-05,131.67000000000112,2.458175e-05,131.67000000000112,8.053266e-06
131.6850000000011,8.47105e-05,131.6850000000011,4.624422e-05,131.6850000000011,2.364531e-05,131.6850000000011,8.219473e-06
131.7000000000011,8.793602e-05,131.7000000000011,4.651514e-05,131.7000000000011,2.292233e-05,131.7000000000011,8.797286e-06
131.71500000000108,9.039784e-05,131.71500000000108,5.104715e-05,131.71500000000108,2.191445e-05,131.71500000000108,9.116548e-06
131.73000000000107,9.744859e-05,131.73000000000107,5.066295e-05,131.73000000000107,2.179715e-05,131.73000000000107,9.090241e-06
131.74500000000106,9.865753e-05,131.74500000000106,5.330766e-05,131.74500000000106,2.109231e-05,131.74500000000106,9.265217e-06
131.76000000000104,0.0001076473,131.76000000000104,5.374401e-05,131.76000000000104,2.164865e-05,131.76000000000104,9.349971e-06
131.77500000000103,0.000107461,131.77500000000103,5.337421e-05,131.77500000000103,2.235359e-05,131.77500000000103,9.262176e-06
131.79000000000102,0.0001076564,131.79000000000102,5.509598e-05,131.79000000000102,2.258804e-05,131.79000000000102,9.236285e-06
131.805000000001,0.0001073109,131.805000000001,5.605561e-05,131.805000000001,2.388713e-05,131.805000000001,9.236285e-06
131.820000000001,0.0001100859,131.820000000001,5.652932e-05,131.820000000001,2.382099e-05,131.820000000001,9.079387e-06
131.83500000000097,0.0001122245,131.83500000000097,5.752945e-05,131.83500000000097,2.379733e-05,131.83500000000097,9.195013e-06
131.85000000000096,0.0001214524,131.85000000000096,6.074403e-05,131.85000000000096,2.32966e-05,131.85000000000096,1.003312e-05
131.86500000000095,0.0001232273,131.86500000000095,6.567883e-05,131.86500000000095,2.372619e-05,131.86500000000095,1.094243e-05
131.88000000000093,0.0001157471,131.88000000000093,6.684258e-05,131.88000000000093,2.373984e-05,131.88000000000093,1.091278e-05
131.89500000000092,0.0001193532,131.89500000000092,7.094307e-05,131.89500000000092,2.048105e-05,131.89500000000092,1.14667e-05
131.9100000000009,0.0001214947,131.9100000000009,7.045351e-05,131.9100000000009,1.973139e-05,131.9100000000009,1.128716e-05
131.9250000000009,0.000123415,131.9250000000009,7.04061e-05,131.9250000000009,1.963836e-05,131.9250000000009,1.11174e-05
131.94000000000088,0.0001216308,131.94000000000088,6.9815e-05,131.94000000000088,1.95665e-05,131.94000000000088,1.073054e-05
131.95500000000087,0.0001211326,131.95500000000087,6.86604e-05,131.95500000000087,1.966488e-05,131.95500000000087,1.065281e-05
131.97000000000085,0.0001190927,131.97000000000085,6.775706e-05,131.97000000000085,1.975993e-05,131.97000000000085,1.061837e-05
131.98500000000084,0.000117782,131.98500000000084,6.808723e-05,131.98500000000084,1.995783e-05,131.98500000000084,1.068713e-05
132.00000000000082,0.0001185685,132.00000000000082,6.684806e-05,132.00000000000082,2.016986e-05,132.00000000000082,1.058915e-05
132.0150000000008,0.0001122613,132.0150000000008,6.701348e-05,132.0150000000008,1.922515e-05,132.0150000000008,1.057184e-05
132.0300000000008,0.0001123722,132.0300000000008,6.678882e-05,132.0300000000008,1.848858e-05,132.0300000000008,1.061439e-05
132.04500000000078,0.0001117106,132.04500000000078,6.59263e-05,132.04500000000078,1.657548e-05,132.04500000000078,1.056917e-05
132.06000000000077,0.0001128092,132.06000000000077,6.520181e-05,132.06000000000077,1.632285e-05,132.06000000000077,1.072792e-05
132.07500000000076,0.0001094987,132.07500000000076,6.647254e-05,132.07500000000076,1.651759e-05,132.07500000000076,1.075546e-05
132.09000000000074,0.0001058288,132.09000000000074,6.49737e-05,132.09000000000074,1.676729e-05,132.09000000000074,1.070952e-05
132.10500000000073,8.889341e-05,132.10500000000073,5.781596e-05,132.10500000000073,1.66856e-05,132.10500000000073,9.015552e-06
132.12000000000072,7.757359e-05,132.12000000000072,5.39512e-05,132.12000000000072,1.784183e-05,132.12000000000072,8.535592e-06
132.1350000000007,7.806199e-05,132.1350000000007,4.946685e-05,132.1350000000007,1.691784e-05,132.1350000000007,8.186846e-06
132.1500000000007,7.58686e-05,132.1500000000007,4.626736e-05,132.1500000000007,1.5301e-05,132.1500000000007,8.121197e-06
132.16500000000067,6.995549e-05,132.16500000000067,4.620796e-05,132.16500000000067,1.561088e-05,132.16500000000067,7.739288e-06
132.18000000000066,7.19118e-05,132.18000000000066,4.564203e-05,132.18000000000066,1.560366e-05,132.18000000000066,7.607108e-06
132.19500000000065,7.314781e-05,132.19500000000065,4.563833e-05,132.19500000000065,1.552946e-05,132.19500000000065,7.62006e-06
132.21000000000063,7.218278e-05,132.21000000000063,5.041572e-05,132.21000000000063,1.537265e-05,132.21000000000063,7.741108e-06
132.22500000000062,7.041511e-05,132.22500000000062,4.991702e-05,132.22500000000062,1.541565e-05,132.22500000000062,7.571843e-06
132.2400000000006,6.794433e-05,132.2400000000006,4.933226e-05,132.2400000000006,1.523272e-05,132.2400000000006,7.59228e-06
132.2550000000006,6.923695e-05,132.2550000000006,4.922993e-05,132.2550000000006,1.621028e-05,132.2550000000006,7.817162e-06
132.27000000000058,6.921721e-05,132.27000000000058,4.766712e-05,132.27000000000058,1.632199e-05,132.27000000000058,7.833364e-06
132.28500000000057,7.408543e-05,132.28500000000057,5.192459e-05,132.28500000000057,1.615282e-05,132.28500000000057,7.942303e-06
132.30000000000055,7.680896e-05,132.30000000000055,5.266616e-05,132.30000000000055,1.599243e-05,132.30000000000055,8.181682e-06
132.31500000000054,8.430544e-05,132.31500000000054,5.21209e-05,132.31500000000054,1.646463e-05,132.31500000000054,7.924546e-06
132.33000000000052,8.363542e-05,132.33000000000052,5.129408e-05,132.33000000000052,1.742401e-05,132.33000000000052,7.797315e-06
132.3450000000005,8.276602e-05,132.3450000000005,5.056693e-05,132.3450000000005,1.808804e-05,132.3450000000005,7.68449e-06
132.3600000000005,8.30289e-05,132.3600000000005,5.122593e-05,132.3600000000005,1.822614e-05,132.3600000000005,7.730182e-06
132.37500000000048,8.663248e-05,132.37500000000048,5.361621e-05,132.37500000000048,1.624673e-05,132.37500000000048,7.919212e-06
132.39000000000047,8.233258e-05,132.39000000000047,5.324235e-05,132.39000000000047,1.503821e-05,132.39000000000047,7.719241e-06
132.40500000000046,8.706652e-05,132.40500000000046,5.435284e-05,132.40500000000046,2.133667e-05,132.40500000000046,8.067247e-06
132.42000000000044,8.727789e-05,132.42000000000044,5.324341e-05,132.42000000000044,2.135119e-05,132.42000000000044,8.074229e-06
132.43500000000043,8.584139e-05,132.43500000000043,5.474742e-05,132.43500000000043,2.154625e-05,132.43500000000043,8.287742e-06
132.45000000000041,8.643942e-05,132.45000000000041,5.142929e-05,132.45000000000041,2.182686e-05,132.45000000000041,7.998858e-06
132.4650000000004,8.409783e-05,132.4650000000004,5.00202e-05,132.4650000000004,2.180232e-05,132.4650000000004,8.037508e-06
132.4800000000004,8.417736e-05,132.4800000000004,4.916092e-05,132.4800000000004,2.186941e-05,132.4800000000004,7.766543e-06
132.49500000000037,8.341685e-05,132.49500000000037,5.024808e-05,132.49500000000037,2.229048e-05,132.49500000000037,7.829767e-06
132.51000000000036,8.065344e-05,132.51000000000036,4.885307e-05,132.51000000000036,2.228985e-05,132.51000000000036,7.534543e-06
132.52500000000035,8.026985e-05,132.52500000000035,4.766357e-05,132.52500000000035,2.2846e-05,132.52500000000035,7.350954e-06
132.54000000000033,7.610996e-05,132.54000000000033,4.326996e-05,132.54000000000033,2.443403e-05,132.54000000000033,7.127172e-06
132.55500000000032,7.195664e-05,132.55500000000032,4.255665e-05,132.55500000000032,2.462011e-05,132.55500000000032,7.061647e-06
132.5700000000003,6.271523e-05,132.5700000000003,4.459044e-05,132.5700000000003,2.446399e-05,132.5700000000003,7.001547e-06
132.5850000000003,6.376769e-05,132.5850000000003,4.379321e-05,132.5850000000003,2.417146e-05,132.5850000000003,7.099447e-06
132.60000000000028,6.461563e-05,132.60000000000028,4.376104e-05,132.60000000000028,2.362921e-05,132.60000000000028,7.051666e-06
132.61500000000026,6.424746e-05,132.61500000000026,4.259437e-05,132.61500000000026,2.373094e-05,132.61500000000026,6.957143e-06
132.63000000000025,6.019309e-05,132.63000000000025,4.077148e-05,132.63000000000025,2.356295e-05,132.63000000000025,6.595429e-06
132.64500000000024,6.24327e-05,132.64500000000024,4.118091e-05,132.64500000000024,2.129503e-05,132.64500000000024,6.692956e-06
132.66000000000022,5.470469e-05,132.66000000000022,3.946421e-05,132.66000000000022,1.979981e-05,132.66000000000022,6.102884e-06
132.6750000000002,5.429839e-05,132.6750000000002,3.629582e-05,132.6750000000002,2.046797e-05,132.6750000000002,6.356147e-06
132.6900000000002,5.165422e-05,132.6900000000002,3.733391e-05,132.6900000000002,2.054011e-05,132.6900000000002,6.264623e-06
132.70500000000018,5.258264e-05,132.70500000000018,3.703692e-05,132.70500000000018,2.022984e-05,132.70500000000018,6.444187e-06
132.72000000000017,5.151003e-05,132.72000000000017,3.70525e-05,132.72000000000017,2.012512e-05,132.72000000000017,6.275856e-06
132.73500000000016,5.144983e-05,132.73500000000016,3.671719e-05,132.73500000000016,1.985593e-05,132.73500000000016,6.309435e-06
132.75000000000014,5.056749e-05,132.75000000000014,3.755249e-05,132.75000000000014,1.885971e-05,132.75000000000014,6.296025e-06
132.76500000000013,5.081315e-05,132.76500000000013,3.947385e-05,132.76500000000013,1.805921e-05,132.76500000000013,6.298262e-06
132.78000000000011,5.256683e-05,132.78000000000011,3.884613e-05,132.78000000000011,1.583754e-05,132.78000000000011,6.360578e-06
132.7950000000001,5.476517e-05,132.7950000000001,3.937594e-05,132.7950000000001,1.451969e-05,132.7950000000001,6.382687e-06
132.8100000000001,5.890528e-05,132.8100000000001,3.993754e-05,132.8100000000001,1.433319e-05,132.8100000000001,6.373853e-06
132.82500000000007,6.601e-05,132.82500000000007,4.4946e-05,132.82500000000007,1.291458e-05,132.82500000000007,7.46882e-06
132.84000000000006,7.036387e-05,132.84000000000006,4.56587e-05,132.84000000000006,1.45507e-05,132.84000000000006,8.093397e-06
132.85500000000005,7.37206e-05,132.85500000000005,5.19056e-05,132.85500000000005,2.016497e-05,132.85500000000005,8.787673e-06
132.87000000000003,7.380864e-05,132.87000000000003,5.171854e-05,132.87000000000003,2.047967e-05,132.87000000000003,9.246955e-06
132.88500000000002,7.431571e-05,132.88500000000002,5.041656e-05,132.88500000000002,2.07557e-05,132.88500000000002,9.179681e-06
132.9,7.281969e-05,132.9,5.022003e-05,132.9,2.050304e-05,132.9,9.119637e-06
132.915,7.446134e-05,132.915,4.987495e-05,132.915,1.822459e-05,132.915,9.08249e-06
132.92999999999998,7.476228e-05,132.92999999999998,5.020208e-05,132.92999999999998,1.827014e-05,132.92999999999998,9.121181e-06
132.94499999999996,7.522905e-05,132.94499999999996,4.99926e-05,132.94499999999996,1.854943e-05,132.94499999999996,9.028043e-06
132.95999999999995,7.582031e-05,132.95999999999995,4.957836e-05,132.95999999999995,2.183525e-05,132.95999999999995,8.91025e-06
132.97499999999994,7.598363e-05,132.97499999999994,5.036988e-05,132.97499999999994,2.225633e-05,132.97499999999994,8.995216e-06
132.98999999999992,7.625862e-05,132.98999999999992,5.001964e-05,132.98999999999992,2.228985e-05,132.98999999999992,8.973265e-06
133.0049999999999,7.727448e-05,133.0049999999999,4.855487e-05,133.0049999999999,2.240332e-05,133.0049999999999,9.167396e-06
133.0199999999999,7.702012e-05,133.0199999999999,4.762573e-05,133.0199999999999,2.23964e-05,133.0199999999999,9.111911e-06
133.03499999999988,7.584037e-05,133.03499999999988,4.79535e-05,133.03499999999988,2.240772e-05,133.03499999999988,9.164322e-06
133.04999999999987,7.215409e-05,133.04999999999987,4.943267e-05,133.04999999999987,2.243599e-05,133.04999999999987,9.384559e-06
133.06499999999986,7.218942e-05,133.06499999999986,4.543199e-05,133.06499999999986,2.273598e-05,133.06499999999986,9.41902e-06
133.07999999999984,6.516681e-05,133.07999999999984,4.294186e-05,133.07999999999984,2.303268e-05,133.07999999999984,8.197163e-06
133.09499999999983,5.900539e-05,133.09499999999983,4.272249e-05,133.09499999999983,2.111901e-05,133.09499999999983,8.2229e-06
133.10999999999981,5.672832e-05,133.10999999999981,4.010613e-05,133.10999999999981,1.753844e-05,133.10999999999981,7.623756e-06
133.1249999999998,5.698995e-05,133.1249999999998,4.082465e-05,133.1249999999998,2.292049e-05,133.1249999999998,7.568121e-06
133.1399999999998,5.753753e-05,133.1399999999998,4.266145e-05,133.1399999999998,2.307851e-05,133.1399999999998,7.793701e-06
133.15499999999977,5.445175e-05,133.15499999999977,4.248741e-05,133.15499999999977,2.32718e-05,133.15499999999977,8.03926e-06
133.16999999999976,5.482327e-05,133.16999999999976,4.220132e-05,133.16999999999976,2.32215e-05,133.16999999999976,8.200599e-06
133.18499999999975,5.726489e-05,133.18499999999975,4.559942e-05,133.18499999999975,2.306141e-05,133.18499999999975,8.439329e-06
133.19999999999973,5.634537e-05,133.19999999999973,4.605191e-05,133.19999999999973,2.192666e-05,133.19999999999973,8.414254e-06
133.21499999999972,5.615981e-05,133.21499999999972,4.757246e-05,133.21499999999972,1.953768e-05,133.21499999999972,8.731387e-06
133.2299999999997,5.840334e-05,133.2299999999997,5.029655e-05,133.2299999999997,1.908543e-05,133.2299999999997,8.889673e-06
133.2449999999997,5.825288e-05,133.2449999999997,5.163022e-05,133.2449999999997,1.900332e-05,133.2449999999997,8.849969e-06
133.25999999999968,5.768815e-05,133.25999999999968,5.240661e-05,133.25999999999968,1.885672e-05,133.25999999999968,8.834038e-06
133.27499999999966,5.797339e-05,133.27499999999966,5.267926e-05,133.27499999999966,1.887539e-05,133.27499999999966,9.228656e-06
133.28999999999965,6.025063e-05,133.28999999999965,5.472426e-05,133.28999999999965,1.914953e-05,133.28999999999965,9.162785e-06
133.30499999999964,5.804041e-05,133.30499999999964,5.497799e-05,133.30499999999964,1.927126e-05,133.30499999999964,8.599714e-06
133.31999999999962,5.614601e-05,133.31999999999962,5.417164e-05,133.31999999999962,1.897365e-05,133.31999999999962,8.648716e-06
133.3349999999996,5.581107e-05,133.3349999999996,5.482661e-05,133.3349999999996,1.823773e-05,133.3349999999996,8.62425e-06
133.3499999999996,5.429579e-05,133.3499999999996,5.378409e-05,133.3499999999996,2.437169e-05,133.3499999999996,8.236593e-06
133.36499999999958,5.138929e-05,133.36499999999958,5.15401e-05,133.36499999999958,2.345629e-05,133.36499999999958,7.770169e-06
133.37999999999957,4.941899e-05,133.37999999999957,5.098944e-05,133.37999999999957,1.867356e-05,133.37999999999957,7.83696e-06
133.39499999999956,4.836243e-05,133.39499999999956,4.97256e-05,133.39499999999956,1.950087e-05,133.39499999999956,7.560672e-06
133.40999999999954,4.63425e-05,133.40999999999954,4.997653e-05,133.40999999999954,1.93726e-05,133.40999999999954,7.480127e-06
133.42499999999953,4.422278e-05,133.42499999999953,5.008071e-05,133.42499999999953,1.93755e-05,133.42499999999953,7.38918e-06
133.43999999999951,4.159276e-05,133.43999999999951,4.828547e-05,133.43999999999951,1.933839e-05,133.43999999999951,6.995509e-06
133.4549999999995,4.158768e-05,133.4549999999995,4.817566e-05,133.4549999999995,1.944083e-05,133.4549999999995,6.844875e-06
133.4699999999995,4.065661e-05,133.4699999999995,4.489489e-05,133.4699999999995,1.94198e-05,133.4699999999995,6.509435e-06
133.48499999999947,3.827662e-05,133.48499999999947,4.359979e-05,133.48499999999947,1.948931e-05,133.48499999999947,6.313899e-06
133.49999999999946,3.596207e-05,133.49999999999946,4.193141e-05,133.49999999999946,1.949365e-05,133.49999999999946,6.264623e-06
133.51499999999945,3.641981e-05,133.51499999999945,4.095625e-05,133.51499999999945,1.950738e-05,133.51499999999945,6.121322e-06
133.52999999999943,3.440049e-05,133.52999999999943,4.15426e-05,133.52999999999943,1.947558e-05,133.52999999999943,5.889093e-06
133.54499999999942,3.300532e-05,133.54499999999942,3.950631e-05,133.54499999999942,1.915468e-05,133.54499999999942,5.934367e-06
133.5599999999994,3.445982e-05,133.5599999999994,3.739838e-05,133.5599999999994,1.917967e-05,133.5599999999994,5.908198e-06
133.5749999999994,3.415763e-05,133.5749999999994,3.837476e-05,133.5749999999994,1.921342e-05,133.5749999999994,6.121322e-06
133.58999999999938,3.838173e-05,133.58999999999938,3.862247e-05,133.58999999999938,2.430513e-05,133.58999999999938,6.123622e-06
133.60499999999936,3.880477e-05,133.60499999999936,3.820884e-05,133.60499999999936,1.828864e-05,133.60499999999936,6.257873e-06
133.61999999999935,4.337303e-05,133.61999999999935,3.749243e-05,133.61999999999935,1.82817e-05,133.61999999999935,6.322817e-06
133.63499999999934,4.444932e-05,133.63499999999934,3.828214e-05,133.63499999999934,1.793475e-05,133.63499999999934,6.255622e-06
133.64999999999932,4.486036e-05,133.64999999999932,3.872555e-05,133.64999999999932,1.726483e-05,133.64999999999932,6.146583e-06
133.6649999999993,4.514333e-05,133.6649999999993,3.800034e-05,133.6649999999993,1.723543e-05,133.6649999999993,6.244353e-06
133.6799999999993,4.480286e-05,133.6799999999993,3.676512e-05,133.6799999999993,1.724687e-05,133.6799999999993,5.915346e-06
133.69499999999928,4.416413e-05,133.69499999999928,3.504353e-05,133.69499999999928,1.737868e-05,133.69499999999928,5.893875e-06
133.70999999999927,4.486004e-05,133.70999999999927,3.586361e-05,133.70999999999927,1.749582e-05,133.70999999999927,6.095956e-06
133.72499999999926,4.580009e-05,133.72499999999926,3.880549e-05,133.72499999999926,2.020545e-05,133.72499999999926,6.187698e-06
133.73999999999924,4.613321e-05,133.73999999999924,3.988177e-05,133.73999999999924,2.022427e-05,133.73999999999924,6.221753e-06
133.75499999999923,4.600539e-05,133.75499999999923,3.942814e-05,133.75499999999923,2.026323e-05,133.75499999999923,6.289309e-06
133.76999999999921,4.868901e-05,133.76999999999921,4.110731e-05,133.76999999999921,2.024654e-05,133.76999999999921,6.724452e-06
133.7849999999992,5.023181e-05,133.7849999999992,4.060911e-05,133.7849999999992,2.032778e-05,133.7849999999992,6.75163e-06
133.7999999999992,5.148706e-05,133.7999999999992,4.250995e-05,133.7999999999992,2.036863e-05,133.7999999999992,7.184261e-06
133.81499999999917,5.535209e-05,133.81499999999917,4.277192e-05,133.81499999999917,2.045352e-05,133.81499999999917,7.887128e-06
133.82999999999916,5.570926e-05,133.82999999999916,4.162458e-05,133.82999999999916,1.685026e-05,133.82999999999916,7.764728e-06
133.84499999999915,5.411986e-05,133.84499999999915,4.277983e-05,133.84499999999915,1.38086e-05,133.84499999999915,7.768356e-06
133.85999999999913,5.431317e-05,133.85999999999913,4.284991e-05,133.85999999999913,1.478408e-05,133.85999999999913,7.689987e-06
133.87499999999912,5.185482e-05,133.87499999999912,4.240876e-05,133.87499999999912,1.488852e-05,133.87499999999912,7.686323e-06
133.8899999999991,5.035225e-05,133.8899999999991,4.183455e-05,133.8899999999991,1.451289e-05,133.8899999999991,7.815361e-06
133.9049999999991,5.052346e-05,133.9049999999991,4.55478e-05,133.9049999999991,1.477264e-05,133.9049999999991,7.968863e-06
133.91999999999908,5.127018e-05,133.91999999999908,4.591375e-05,133.91999999999908,1.479646e-05,133.91999999999908,8.098617e-06
133.93499999999906,5.117806e-05,133.93499999999906,4.602498e-05,133.93499999999906,1.481739e-05,133.93499999999906,8.296236e-06
133.94999999999905,5.185455e-05,133.94999999999905,4.757305e-05,133.94999999999905,1.472488e-05,133.94999999999905,8.316587e-06
133.96499999999904,5.073464e-05,133.96499999999904,4.819144e-05,133.96499999999904,1.3209e-05,133.96499999999904,8.226325e-06
133.97999999999902,4.971285e-05,133.97999999999902,4.612099e-05,133.97999999999902,1.109203e-05,133.97999999999902,8.042764e-06
133.994999999999,4.88398e-05,133.994999999999,4.576255e-05,133.994999999999,1.128591e-05,133.994999999999,8.164447e-06
134.009999999999,4.820985e-05,134.009999999999,4.702416e-05,134.009999999999,1.151573e-05,134.009999999999,7.982992e-06
134.02499999999898,4.339479e-05,134.02499999999898,4.659321e-05,134.02499999999898,1.186042e-05,134.02499999999898,7.364355e-06
134.03999999999897,4.20019e-05,134.03999999999897,4.537149e-05,134.03999999999897,1.304913e-05,134.03999999999897,7.372003e-06
134.05499999999896,4.037708e-05,134.05499999999896,4.303263e-05,134.05499999999896,1.247177e-05,134.05499999999896,6.743279e-06
134.06999999999894,3.358411e-05,134.06999999999894,4.153514e-05,134.06999999999894,1.228858e-05,134.06999999999894,6.217223e-06
134.08499999999893,3.302026e-05,134.08499999999893,4.447118e-05,134.08499999999893,1.258869e-05,134.08499999999893,6.040241e-06
134.09999999999891,3.215879e-05,134.09999999999891,4.678811e-05,134.09999999999891,1.21514e-05,134.09999999999891,6.148874e-06
134.1149999999989,3.25502e-05,134.1149999999989,4.627497e-05,134.1149999999989,1.202555e-05,134.1149999999989,6.282586e-06
134.1299999999989,3.345004e-05,134.1299999999989,4.608738e-05,134.1299999999989,1.265788e-05,134.1299999999989,6.132817e-06
134.14499999999887,3.50817e-05,134.14499999999887,4.760679e-05,134.14499999999887,1.341639e-05,134.14499999999887,6.205884e-06
134.15999999999886,3.274695e-05,134.15999999999886,4.47015e-05,134.15999999999886,1.364337e-05,134.15999999999886,6.189974e-06
134.17499999999885,3.202975e-05,134.17499999999885,4.520476e-05,134.17499999999885,1.362373e-05,134.17499999999885,6.123622e-06
134.18999999999883,3.187236e-05,134.18999999999883,4.553667e-05,134.18999999999883,1.498002e-05,134.18999999999883,5.799914e-06
134.20499999999882,3.209302e-05,134.20499999999882,4.176479e-05,134.20499999999882,1.488663e-05,134.20499999999882,5.765811e-06
134.2199999999988,3.367459e-05,134.2199999999988,4.243998e-05,134.2199999999988,2.182234e-05,134.2199999999988,5.787757e-06
134.2349999999988,3.496828e-05,134.2349999999988,4.600876e-05,134.2349999999988,2.175899e-05,134.2349999999988,5.833818e-06
134.24999999999878,3.527071e-05,134.24999999999878,4.475126e-05,134.24999999999878,2.20209e-05,134.24999999999878,5.751133e-06
134.26499999999876,3.510097e-05,134.26499999999876,4.205788e-05,134.26499999999876,2.174215e-05,134.26499999999876,5.612292e-06
134.27999999999875,3.562321e-05,134.27999999999875,4.151988e-05,134.27999999999875,2.132809e-05,134.27999999999875,5.647323e-06
134.29499999999874,3.500693e-05,134.29499999999874,4.210005e-05,134.29499999999874,2.098854e-05,134.29499999999874,5.642331e-06
134.30999999999872,3.442547e-05,134.30999999999872,4.266806e-05,134.30999999999872,2.135647e-05,134.30999999999872,5.652309e-06
134.3249999999987,3.398108e-05,134.3249999999987,4.481009e-05,134.3249999999987,2.122613e-05,134.3249999999987,5.61731e-06
134.3399999999987,3.448924e-05,134.3399999999987,4.107508e-05,134.3399999999987,2.11723e-05,134.3399999999987,5.696992e-06
134.35499999999868,3.420832e-05,134.35499999999868,3.795063e-05,134.35499999999868,2.080451e-05,134.35499999999868,5.510979e-06
134.36999999999867,3.41238e-05,134.36999999999867,3.874046e-05,134.36999999999867,2.111034e-05,134.36999999999867,5.546649e-06
134.38499999999866,3.381069e-05,134.38499999999866,3.874192e-05,134.38499999999866,2.16922e-05,134.38499999999866,5.649817e-06
134.39999999999864,3.713264e-05,134.39999999999864,3.864034e-05,134.39999999999864,2.128313e-05,134.39999999999864,5.726587e-06
134.41499999999863,3.848838e-05,134.41499999999863,3.712733e-05,134.41499999999863,2.121617e-05,134.41499999999863,5.358047e-06
134.4299999999986,4.357296e-05,134.4299999999986,3.725383e-05,134.4299999999986,2.123343e-05,134.4299999999986,5.644828e-06
134.4449999999986,4.290248e-05,134.4449999999986,3.685314e-05,134.4449999999986,2.025002e-05,134.4449999999986,5.836232e-06
134.4599999999986,4.261189e-05,134.4599999999986,3.751271e-05,134.4599999999986,2.034302e-05,134.4599999999986,5.891484e-06
134.47499999999857,4.285813e-05,134.47499999999857,4.13659e-05,134.47499999999857,1.415617e-05,134.47499999999857,5.910582e-06
134.48999999999856,4.131615e-05,134.48999999999856,3.889143e-05,134.48999999999856,1.827862e-05,134.48999999999856,5.773135e-06
134.50499999999855,4.098581e-05,134.50499999999855,3.823575e-05,134.50499999999855,1.997335e-05,134.50499999999855,5.758477e-06
134.51999999999853,4.203643e-05,134.51999999999853,4.093664e-05,134.51999999999853,2.012232e-05,134.51999999999853,5.879517e-06
134.53499999999852,4.169626e-05,134.53499999999852,4.205654e-05,134.53499999999852,2.055108e-05,134.53499999999852,5.943854e-06
134.5499999999985,4.247813e-05,134.5499999999985,4.321328e-05,134.5499999999985,2.076588e-05,134.5499999999985,5.934367e-06
134.5649999999985,4.297563e-05,134.5649999999985,4.183657e-05,134.5649999999985,2.132412e-05,134.5649999999985,5.953326e-06
134.57999999999848,4.262677e-05,134.57999999999848,4.112615e-05,134.57999999999848,2.516843e-05,134.57999999999848,6.079758e-06
134.59499999999846,4.213685e-05,134.59499999999846,4.229768e-05,134.59499999999846,2.528625e-05,134.59499999999846,6.109804e-06
134.60999999999845,4.128887e-05,134.60999999999845,4.196869e-05,134.60999999999845,2.532577e-05,134.60999999999845,6.146583e-06
134.62499999999844,3.977e-05,134.62499999999844,4.214554e-05,134.62499999999844,2.497628e-05,134.62499999999844,5.824151e-06
134.63999999999842,3.969342e-05,134.63999999999842,4.259172e-05,134.63999999999842,2.38948e-05,134.63999999999842,5.824151e-06
134.6549999999984,3.557176e-05,134.6549999999984,4.222768e-05,134.6549999999984,2.389539e-05,134.6549999999984,5.748683e-06
134.6699999999984,3.642986e-05,134.6699999999984,4.290379e-05,134.6699999999984,2.398189e-05,134.6699999999984,6.16489e-06
134.68499999999838,3.269659e-05,134.68499999999838,4.358299e-05,134.68499999999838,2.400596e-05,134.68499999999838,5.826569e-06
134.69999999999837,3.939061e-05,134.69999999999837,4.913111e-05,134.69999999999837,2.399716e-05,134.69999999999837,6.563313e-06
134.71499999999835,4.128511e-05,134.71499999999835,4.903612e-05,134.71499999999835,2.430165e-05,134.71499999999835,6.511599e-06
134.72999999999834,4.331096e-05,134.72999999999834,4.610113e-05,134.72999999999834,2.23706e-05,134.72999999999834,6.599699e-06
134.74499999999833,4.414754e-05,134.74499999999833,4.541369e-05,134.74499999999833,2.210199e-05,134.74499999999833,6.582601e-06
134.7599999999983,4.484246e-05,134.7599999999983,4.582776e-05,134.7599999999983,2.175122e-05,134.7599999999983,6.623136e-06
134.7749999999983,4.435954e-05,134.7749999999983,4.369145e-05,134.7749999999983,2.17415e-05,134.7749999999983,6.584741e-06
134.7899999999983,4.457938e-05,134.7899999999983,4.373882e-05,134.7899999999983,2.116964e-05,134.7899999999983,6.816002e-06
134.80499999999827,4.338375e-05,134.80499999999827,4.23293e-05,134.80499999999827,2.095697e-05,134.80499999999827,6.732826e-06
134.81999999999826,4.389378e-05,134.81999999999826,4.248841e-05,134.81999999999826,1.846418e-05,134.81999999999826,6.713969e-06
134.83499999999825,4.410157e-05,134.83499999999825,4.221166e-05,134.83499999999825,1.528626e-05,134.83499999999825,6.646491e-06
134.84999999999823,4.571635e-05,134.84999999999823,4.760265e-05,134.84999999999823,1.518456e-05,134.84999999999823,6.642251e-06
134.86499999999822,4.598916e-05,134.86499999999822,4.817215e-05,134.86499999999822,1.525675e-05,134.86499999999822,6.614623e-06
134.8799999999982,4.589871e-05,134.8799999999982,4.699419e-05,134.8799999999982,2.331111e-05,134.8799999999982,6.601833e-06
134.8949999999982,4.549829e-05,134.8949999999982,4.750193e-05,134.8949999999982,2.6235e-05,134.8949999999982,6.631638e-06
134.90999999999818,4.572775e-05,134.90999999999818,4.614542e-05,134.90999999999818,2.62205e-05,134.90999999999818,6.347276e-06
134.92499999999816,4.266178e-05,134.92499999999816,4.778783e-05,134.92499999999816,2.618018e-05,134.92499999999816,6.13052e-06
134.93999999999815,4.176311e-05,134.93999999999815,4.531246e-05,134.93999999999815,2.619094e-05,134.93999999999815,6.224016e-06
134.95499999999814,3.708405e-05,134.95499999999814,4.211009e-05,134.95499999999814,2.608801e-05,134.95499999999814,5.516089e-06
134.96999999999812,3.518234e-05,134.96999999999812,4.18534e-05,134.96999999999812,2.591681e-05,134.96999999999812,5.373798e-06
134.9849999999981,3.241881e-05,134.9849999999981,4.087224e-05,134.9849999999981,2.589561e-05,134.9849999999981,5.262549e-06
134.9999999999981,3.137793e-05,134.9999999999981,4.151546e-05,134.9999999999981,2.277993e-05,134.9999999999981,5.222243e-06
135.01499999999808,3.024921e-05,135.01499999999808,4.119254e-05,135.01499999999808,2.264783e-05,135.01499999999808,5.227635e-06
135.02999999999807,2.94689e-05,135.02999999999807,4.125747e-05,135.02999999999807,2.390482e-05,135.02999999999807,5.074491e-06
135.04499999999805,2.924385e-05,135.04499999999805,4.021312e-05,135.04499999999805,2.394427e-05,135.04499999999805,4.976383e-06
135.05999999999804,2.873999e-05,135.05999999999804,4.18039e-05,135.05999999999804,2.395074e-05,135.05999999999804,5.038274e-06
135.07499999999803,2.899131e-05,135.07499999999803,4.199721e-05,135.07499999999803,2.373569e-05,135.07499999999803,5.278585e-06
135.089999999998,2.848199e-05,135.089999999998,3.90941e-05,135.089999999998,2.391955e-05,135.089999999998,5.459618e-06
135.104999999998,2.676182e-05,135.104999999998,3.497875e-05,135.104999999998,2.400362e-05,135.104999999998,5.61731e-06
135.119999999998,2.62672e-05,135.119999999998,3.596168e-05,135.119999999998,2.392367e-05,135.119999999998,5.790191e-06
135.13499999999797,2.548436e-05,135.13499999999797,3.707227e-05,135.13499999999797,1.091924e-05,135.13499999999797,5.738873e-06
135.14999999999796,2.528848e-05,135.14999999999796,3.675438e-05,135.14999999999796,1.069241e-05,135.14999999999796,5.716739e-06
135.16499999999795,2.362504e-05,135.16499999999795,3.703996e-05,135.16499999999795,1.060775e-05,135.16499999999795,5.706874e-06
135.17999999999793,2.372916e-05,135.17999999999793,3.36658e-05,135.17999999999793,1.062765e-05,135.17999999999793,5.632336e-06
135.19499999999792,2.738876e-05,135.19499999999792,3.392756e-05,135.19499999999792,1.150472e-05,135.19499999999792,5.500745e-06
135.2099999999979,2.594995e-05,135.2099999999979,3.381902e-05,135.2099999999979,1.133324e-05,135.2099999999979,5.412975e-06
135.2249999999979,2.429353e-05,135.2249999999979,3.480394e-05,135.2249999999979,1.117301e-05,135.2249999999979,5.475077e-06
135.23999999999788,2.45634e-05,135.23999999999788,3.409365e-05,135.23999999999788,1.119568e-05,135.23999999999788,5.539025e-06
135.25499999999786,2.488361e-05,135.25499999999786,3.510819e-05,135.25499999999786,1.302644e-05,135.25499999999786,5.554263e-06
135.26999999999785,2.511969e-05,135.26999999999785,3.497593e-05,135.26999999999785,1.278963e-05,135.26999999999785,5.624828e-06
135.28499999999784,2.538966e-05,135.28499999999784,3.713605e-05,135.28499999999784,1.1207e-05,135.28499999999784,5.594695e-06
135.29999999999782,2.600959e-05,135.29999999999782,3.896417e-05,135.29999999999782,1.115913e-05,135.29999999999782,5.622323e-06
135.3149999999978,2.863195e-05,135.3149999999978,3.684281e-05,135.3149999999978,1.145317e-05,135.3149999999978,5.652309e-06
135.3299999999978,2.716877e-05,135.3299999999978,3.700952e-05,135.3299999999978,1.133697e-05,135.3299999999978,5.454455e-06
135.34499999999778,2.787409e-05,135.34499999999778,3.761958e-05,135.34499999999778,1.176981e-05,135.34499999999778,5.415577e-06
135.35999999999777,2.767477e-05,135.35999999999777,3.664615e-05,135.35999999999777,1.169658e-05,135.35999999999777,5.270573e-06
135.37499999999775,2.750014e-05,135.37499999999775,3.632763e-05,135.37499999999775,1.166522e-05,135.37499999999775,5.254512e-06
135.38999999999774,2.724902e-05,135.38999999999774,3.512063e-05,135.38999999999774,1.286978e-05,135.38999999999774,5.392116e-06
135.40499999999773,2.763963e-05,135.40499999999773,3.683211e-05,135.40499999999773,1.272337e-05,135.40499999999773,5.384273e-06
135.4199999999977,2.763504e-05,135.4199999999977,3.689019e-05,135.4199999999977,1.305021e-05,135.4199999999977,5.344885e-06
135.4349999999977,2.691142e-05,135.4349999999977,3.667458e-05,135.4349999999977,1.253149e-05,135.4349999999977,5.425972e-06
135.4499999999977,2.435376e-05,135.4499999999977,3.586872e-05,135.4499999999977,1.23275e-05,135.4499999999977,5.392116e-06
135.46499999999767,2.578221e-05,135.46499999999767,3.558998e-05,135.46499999999767,1.233435e-05,135.46499999999767,5.451871e-06
135.47999999999766,2.690462e-05,135.47999999999766,3.5875e-05,135.47999999999766,1.239814e-05,135.47999999999766,5.399948e-06
135.49499999999765,2.694908e-05,135.49499999999765,3.726782e-05,135.49499999999765,1.066602e-05,135.49499999999765,5.313164e-06
135.50999999999763,2.61371e-05,135.50999999999763,3.617103e-05,135.50999999999763,1.039717e-05,135.50999999999763,5.457037e-06
135.52499999999762,2.643506e-05,135.52499999999762,3.469651e-05,135.52499999999762,1.091536e-05,135.52499999999762,5.259872e-06
135.5399999999976,2.653186e-05,135.5399999999976,3.327524e-05,135.5399999999976,1.082855e-05,135.5399999999976,5.168013e-06
135.5549999999976,2.627632e-05,135.5549999999976,3.239664e-05,135.5549999999976,1.05745e-05,135.5549999999976,5.257193e-06
135.56999999999758,2.434219e-05,135.56999999999758,3.331585e-05,135.56999999999758,1.053981e-05,135.56999999999758,5.331691e-06
135.58499999999756,2.519808e-05,135.58499999999756,3.217281e-05,135.58499999999756,9.489051e-06,135.58499999999756,5.291911e-06
135.59999999999755,2.476047e-05,135.59999999999755,3.249477e-05,135.59999999999755,9.104177e-06,135.59999999999755,5.091119e-06
135.61499999999754,2.499827e-05,135.61499999999754,3.2354e-05,135.61499999999754,9.618801e-06,135.61499999999754,5.096651e-06
135.62999999999752,2.594398e-05,135.62999999999752,3.467986e-05,135.62999999999752,8.362194e-06,135.62999999999752,5.052234e-06
135.6449999999975,2.585696e-05,135.6449999999975,3.375231e-05,135.6449999999975,8.070739e-06,135.6449999999975,4.893604e-06
135.6599999999975,2.535135e-05,135.6599999999975,3.163235e-05,135.6599999999975,8.193725e-06,135.6599999999975,5.00461e-06
135.67499999999748,2.533245e-05,135.67499999999748,3.207634e-05,135.67499999999748,7.739288e-06,135.67499999999748,5.035477e-06
135.68999999999747,2.657536e-05,135.68999999999747,3.608602e-05,135.68999999999747,8.25709e-06,135.68999999999747,5.091119e-06
135.70499999999745,2.869535e-05,135.70499999999745,3.631755e-05,135.70499999999745,8.121197e-06,135.70499999999745,5.251831e-06
135.71999999999744,2.768495e-05,135.71999999999744,3.630591e-05,135.71999999999744,8.192006e-06,135.71999999999744,5.208738e-06
135.73499999999743,2.675867e-05,135.73499999999743,3.512343e-05,135.73499999999743,8.160995e-06,135.73499999999743,5.197909e-06
135.7499999999974,2.674655e-05,135.7499999999974,3.426427e-05,135.7499999999974,8.089915e-06,135.7499999999974,5.254512e-06
135.7649999999974,2.790591e-05,135.7649999999974,3.607509e-05,135.7649999999974,8.098617e-06,135.7649999999974,5.214144e-06
135.7799999999974,2.894073e-05,135.7799999999974,3.635128e-05,135.7799999999974,6.732826e-06,135.7799999999974,5.211442e-06
135.79499999999737,2.859207e-05,135.79499999999737,3.735014e-05,135.79499999999737,7.320229e-06,135.79499999999737,5.556798e-06
135.80999999999736,2.886421e-05,135.80999999999736,3.618582e-05,135.80999999999736,7.553216e-06,135.80999999999736,5.389503e-06
135.82499999999735,2.83695e-05,135.82499999999735,3.62667e-05,135.82499999999735,7.771981e-06,135.82499999999735,5.513535e-06
135.83999999999733,2.777639e-05,135.83999999999733,3.612543e-05,135.83999999999733,8.124666e-06,135.83999999999733,5.500745e-06
135.85499999999732,2.825257e-05,135.85499999999732,3.638072e-05,135.85499999999732,8.135063e-06,135.85499999999732,5.493057e-06
135.8699999999973,2.739801e-05,135.8699999999973,3.517192e-05,135.8699999999973,7.410121e-06,135.8699999999973,5.34752e-06
135.8849999999973,2.726401e-05,135.8849999999973,3.370846e-05,135.8849999999973,8.350395e-06,135.8849999999973,5.350154e-06
135.89999999999728,2.801222e-05,135.89999999999728,3.500532e-05,135.89999999999728,8.475971e-06,135.89999999999728,5.389503e-06
135.91499999999726,2.805544e-05,135.91499999999726,3.460382e-05,135.91499999999726,8.444335e-06,135.91499999999726,5.405162e-06
135.92999999999725,2.788369e-05,135.92999999999725,3.640201e-05,135.92999999999725,8.36051e-06,135.92999999999725,5.487926e-06
135.94499999999724,2.644784e-05,135.94499999999724,3.214521e-05,135.94499999999724,8.444335e-06,135.94499999999724,5.410373e-06
135.95999999999722,2.6402e-05,135.95999999999722,3.229256e-05,135.95999999999722,8.773234e-06,135.95999999999722,5.227635e-06
135.9749999999972,2.58177e-05,135.9749999999972,3.304712e-05,135.9749999999972,8.720087e-06,135.9749999999972,5.200618e-06
135.9899999999972,2.628757e-05,135.9899999999972,3.744054e-05,135.9899999999972,8.811686e-06,135.9899999999972,5.326404e-06
136.00499999999718,2.73831e-05,136.00499999999718,3.795917e-05,136.00499999999718,8.824465e-06,136.00499999999718,5.222243e-06
136.01999999999717,2.514267e-05,136.01999999999717,3.611412e-05,136.01999999999717,8.913411e-06,136.01999999999717,5.257193e-06
136.03499999999715,2.45261e-05,136.03499999999715,3.55686e-05,136.03499999999715,9.607078e-06,136.03499999999715,5.302549e-06
136.04999999999714,2.432714e-05,136.04999999999714,3.639156e-05,136.04999999999714,8.848378e-06,136.04999999999714,5.052234e-06
136.06499999999713,2.403235e-05,136.06499999999713,3.710683e-05,136.06499999999713,8.862694e-06,136.06499999999713,5.035477e-06
136.0799999999971,2.451116e-05,136.0799999999971,3.650364e-05,136.0799999999971,8.517419e-06,136.0799999999971,4.922306e-06
136.0949999999971,2.424652e-05,136.0949999999971,3.67835e-05,136.0949999999971,8.397496e-06,136.0949999999971,5.010237e-06
136.1099999999971,2.41965e-05,136.1099999999971,3.797327e-05,136.1099999999971,8.927624e-06,136.1099999999971,4.976383e-06
136.12499999999707,2.453988e-05,136.12499999999707,3.816827e-05,136.12499999999707,8.979542e-06,136.12499999999707,5.08004e-06
136.13999999999706,2.544508e-05,136.13999999999706,3.753561e-05,136.13999999999706,8.31828e-06,136.13999999999706,5.195198e-06
136.15499999999705,2.449104e-05,136.15499999999705,3.686002e-05,136.15499999999705,8.193725e-06,136.15499999999705,5.178904e-06
136.16999999999703,2.549817e-05,136.16999999999703,3.703045e-05,136.16999999999703,8.188566e-06,136.16999999999703,5.137942e-06
136.18499999999702,2.472972e-05,136.18499999999702,3.575622e-05,136.18499999999702,1.074366e-05,136.18499999999702,5.154366e-06
136.199999999997,2.212747e-05,136.199999999997,3.59413e-05,136.199999999997,1.012675e-05,136.199999999997,5.238403e-06
136.214999999997,2.313947e-05,136.214999999997,3.569353e-05,136.214999999997,1.020021e-05,136.214999999997,5.307859e-06
136.22999999999698,2.324697e-05,136.22999999999698,3.395537e-05,136.22999999999698,1.026079e-05,136.22999999999698,5.238403e-06
136.24499999999696,2.282379e-05,136.24499999999696,3.060477e-05,136.24499999999696,1.015869e-05,136.24499999999696,5.238403e-06
136.25999999999695,2.201258e-05,136.25999999999695,3.004079e-05,136.25999999999695,1.00975e-05,136.25999999999695,5.241091e-06
136.27499999999694,2.221134e-05,136.27499999999694,3.005252e-05,136.27499999999694,1.043369e-05,136.27499999999694,5.281253e-06
136.28999999999692,2.410434e-05,136.28999999999692,2.916136e-05,136.28999999999692,1.044583e-05,136.28999999999692,5.135199e-06
136.3049999999969,2.507928e-05,136.3049999999969,2.99699e-05,136.3049999999969,1.054382e-05,136.3049999999969,5.162558e-06
136.3199999999969,2.607882e-05,136.3199999999969,3.082262e-05,136.3199999999969,1.060377e-05,136.3199999999969,5.192486e-06
136.33499999999688,2.797297e-05,136.33499999999688,3.119694e-05,136.33499999999688,1.145809e-05,136.33499999999688,5.121465e-06
136.34999999999687,3.393711e-05,136.34999999999687,3.015733e-05,136.34999999999687,1.18295e-05,136.34999999999687,5.323759e-06
136.36499999999685,3.603446e-05,136.36499999999685,2.929198e-05,136.36499999999685,1.13096e-05,136.36499999999685,5.278585e-06
136.37999999999684,3.693522e-05,136.37999999999684,2.955672e-05,136.37999999999684,1.138161e-05,136.37999999999684,5.344885e-06
136.39499999999683,3.735277e-05,136.39499999999683,3.044001e-05,136.39499999999683,1.214909e-05,136.39499999999683,5.410373e-06
136.4099999999968,3.767309e-05,136.4099999999968,3.04807e-05,136.4099999999968,1.303941e-05,136.4099999999968,5.748683e-06
136.4249999999968,4.172733e-05,136.4249999999968,3.058451e-05,136.4249999999968,1.224034e-05,136.4249999999968,5.746233e-06
136.4399999999968,4.27604e-05,136.4399999999968,3.255886e-05,136.4399999999968,1.159497e-05,136.4399999999968,5.748683e-06
136.45499999999677,5.064404e-05,136.45499999999677,3.327439e-05,136.45499999999677,1.153529e-05,136.45499999999677,6.269119e-06
136.46999999999676,5.667616e-05,136.46999999999676,3.946421e-05,136.46999999999676,1.159861e-05,136.46999999999676,7.001547e-06
136.48499999999675,5.774868e-05,136.48499999999675,3.954836e-05,136.48499999999675,1.16156e-05,136.48499999999675,7.087532e-06
136.49999999999673,5.804333e-05,136.49999999999673,3.991566e-05,136.49999999999673,1.161803e-05,136.49999999999673,7.129148e-06
136.51499999999672,6.037279e-05,136.51499999999672,4.058309e-05,136.51499999999672,1.163015e-05,136.51499999999672,7.172487e-06
136.5299999999967,6.561918e-05,136.5299999999967,4.325856e-05,136.5299999999967,1.13779e-05,136.5299999999967,7.262268e-06
136.5449999999967,6.752172e-05,136.5449999999967,4.261553e-05,136.5449999999967,1.128591e-05,136.5449999999967,7.324076e-06
136.55999999999668,6.931991e-05,136.55999999999668,4.193041e-05,136.55999999999668,1.119191e-05,136.55999999999668,7.329844e-06
136.57499999999666,6.971545e-05,136.57499999999666,4.225369e-05,136.57499999999666,1.216878e-05,136.57499999999666,7.489538e-06
136.58999999999665,6.67808e-05,136.58999999999665,4.199352e-05,136.58999999999665,1.134194e-05,136.58999999999665,7.425313e-06
136.60499999999664,6.804895e-05,136.60499999999664,4.217026e-05,136.60499999999664,1.2465e-05,136.60499999999664,7.362442e-06
136.61999999999662,6.836885e-05,136.61999999999662,4.134444e-05,136.61999999999662,1.270232e-05,136.61999999999662,7.417721e-06
136.6349999999966,6.819701e-05,136.6349999999966,4.349887e-05,136.6349999999966,1.257414e-05,136.6349999999966,7.538281e-06
136.6499999999966,6.841704e-05,136.6499999999966,4.381669e-05,136.6499999999966,1.191493e-05,136.6499999999966,7.283574e-06
136.66499999999658,6.869464e-05,136.66499999999658,4.328981e-05,136.66499999999658,1.047143e-05,136.66499999999658,7.190141e-06
136.67999999999657,6.652253e-05,136.67999999999657,4.203912e-05,136.67999999999657,1.029779e-05,136.67999999999657,7.117283e-06
136.69499999999655,6.935587e-05,136.69499999999655,4.238684e-05,136.69499999999655,1.029232e-05,136.69499999999655,7.049668e-06
136.70999999999654,6.591903e-05,136.70999999999654,3.8263e-05,136.70999999999654,1.027177e-05,136.70999999999654,6.468188e-06
136.72499999999653,6.594147e-05,136.72499999999653,3.62733e-05,136.72499999999653,1.016978e-05,136.72499999999653,6.128222e-06
136.7399999999965,6.840655e-05,136.7399999999965,3.878044e-05,136.7399999999965,1.043774e-05,136.7399999999965,6.646491e-06
136.7549999999965,6.878994e-05,136.7549999999965,3.791313e-05,136.7549999999965,1.0462e-05,136.7549999999965,6.667651e-06
136.7699999999965,6.754467e-05,136.7699999999965,3.575701e-05,136.7699999999965,1.049293e-05,136.7699999999965,7.362442e-06
136.78499999999647,6.210649e-05,136.78499999999647,3.747965e-05,136.78499999999647,1.009191e-05,136.78499999999647,7.398706e-06
136.79999999999646,6.064934e-05,136.79999999999646,3.991919e-05,136.79999999999646,1.01684e-05,136.79999999999646,7.551351e-06
136.81499999999645,5.92006e-05,136.81499999999645,3.997808e-05,136.81499999999645,1.012258e-05,136.81499999999645,7.498936e-06
136.82999999999643,5.910486e-05,136.82999999999643,3.971329e-05,136.82999999999643,9.571822e-06,136.82999999999643,7.532673e-06
136.84499999999642,5.857506e-05,136.84499999999642,4.09676e-05,136.84499999999642,1.073973e-05,136.84499999999642,7.70097e-06
136.8599999999964,5.784008e-05,136.8599999999964,4.231166e-05,136.8599999999964,1.015037e-05,136.8599999999964,7.699141e-06
136.8749999999964,5.730374e-05,136.8749999999964,4.294383e-05,136.8749999999964,9.871762e-06,136.8749999999964,7.645896e-06
136.88999999999638,5.732734e-05,136.88999999999638,4.129637e-05,136.88999999999638,9.79584e-06,136.88999999999638,7.59228e-06
136.90499999999636,5.735731e-05,136.90499999999636,4.185811e-05,136.90499999999636,1.115029e-05,136.90499999999636,7.638524e-06
136.91999999999635,5.860944e-05,136.91999999999635,4.186081e-05,136.91999999999635,1.143101e-05,136.91999999999635,7.671647e-06
136.93499999999634,5.786102e-05,136.93499999999634,4.651544e-05,136.93499999999634,1.18152e-05,136.93499999999634,7.737468e-06
136.94999999999632,5.790604e-05,136.94999999999632,4.926883e-05,136.94999999999632,1.674375e-05,136.94999999999632,7.766543e-06
136.9649999999963,5.677028e-05,136.9649999999963,5.032259e-05,136.9649999999963,1.682432e-05,136.9649999999963,7.759284e-06
136.9799999999963,5.288103e-05,136.9799999999963,4.942754e-05,136.9799999999963,1.684775e-05,136.9799999999963,7.995334e-06
136.99499999999628,5.347414e-05,136.99499999999628,4.790177e-05,136.99499999999628,1.674964e-05,136.99499999999628,8.046266e-06
137.00999999999627,5.211253e-05,137.00999999999627,4.803803e-05,137.00999999999627,1.693615e-05,137.00999999999627,7.713764e-06
137.02499999999625,5.125754e-05,137.02499999999625,4.843519e-05,137.02499999999625,1.691201e-05,137.02499999999625,7.350954e-06
137.03999999999624,5.194981e-05,137.03999999999624,4.417051e-05,137.03999999999624,1.706458e-05,137.03999999999624,7.372003e-06
137.05499999999623,5.46132e-05,137.05499999999623,4.344118e-05,137.05499999999623,1.709015e-05,137.05499999999623,7.423416e-06
137.0699999999962,5.968734e-05,137.0699999999962,4.330478e-05,137.0699999999962,1.727624e-05,137.0699999999962,7.708283e-06
137.0849999999962,7.175923e-05,137.0849999999962,4.322012e-05,137.0849999999962,1.713378e-05,137.0849999999962,8.355453e-06
137.0999999999962,7.635222e-05,137.0999999999962,4.306797e-05,137.0999999999962,1.618331e-05,137.0999999999962,8.497549e-06
137.11499999999617,7.680951e-05,137.11499999999617,4.296711e-05,137.11499999999617,1.613624e-05,137.11499999999617,8.54384e-06
137.12999999999616,7.674364e-05,137.12999999999616,4.218963e-05,137.12999999999616,1.607589e-05,137.12999999999616,8.558665e-06
137.14499999999614,7.819721e-05,137.14499999999614,4.100574e-05,137.14499999999614,1.612576e-05,137.14499999999614,8.522379e-06
137.15999999999613,7.807858e-05,137.15999999999613,4.012545e-05,137.15999999999613,1.517714e-05,137.15999999999613,8.643829e-06
137.17499999999612,7.744292e-05,137.17499999999612,3.84492e-05,137.17499999999612,1.497437e-05,137.17499999999612,8.995216e-06
137.1899999999961,7.805387e-05,137.1899999999961,3.188385e-05,137.1899999999961,1.344786e-05,137.1899999999961,9.204201e-06
137.2049999999961,7.666247e-05,137.2049999999961,3.205261e-05,137.2049999999961,8.51411e-06,137.2049999999961,9.280408e-06
137.21999999999608,7.635462e-05,137.21999999999608,3.070861e-05,137.21999999999608,8.402527e-06,137.21999999999608,9.145859e-06
137.23499999999606,7.641713e-05,137.23499999999606,3.233135e-05,137.23499999999606,8.397496e-06,137.23499999999606,8.684475e-06
137.24999999999605,7.708375e-05,137.24999999999605,3.222356e-05,137.24999999999605,8.231461e-06,137.24999999999605,8.834038e-06
137.26499999999604,7.67952e-05,137.26499999999604,3.148326e-05,137.26499999999604,7.759284e-06,137.26499999999604,8.792481e-06
137.27999999999602,7.718657e-05,137.27999999999602,3.104304e-05,137.27999999999602,7.446153e-06,137.27999999999602,8.715239e-06
137.294999999996,7.739998e-05,137.294999999996,3.100762e-05,137.294999999996,7.22727e-06,137.294999999996,8.487596e-06
137.309999999996,7.315204e-05,137.309999999996,3.008765e-05,137.309999999996,7.156758e-06,137.309999999996,8.143716e-06
137.32499999999598,7.068965e-05,137.32499999999598,2.995016e-05,137.32499999999598,6.890002e-06,137.32499999999598,8.037508e-06
137.33999999999597,5.511337e-05,137.33999999999597,2.7633e-05,137.33999999999597,7.037669e-06,137.33999999999597,6.953093e-06
137.35499999999595,5.147337e-05,137.35499999999595,2.589615e-05,137.35499999999595,6.554722e-06,137.35499999999595,6.936866e-06
137.36999999999594,5.134568e-05,137.36999999999594,2.461954e-05,137.36999999999594,6.589018e-06,137.36999999999594,6.965238e-06
137.38499999999593,5.306346e-05,137.38499999999593,2.490681e-05,137.38499999999593,6.563313e-06,137.38499999999593,7.025649e-06
137.3999999999959,5.026602e-05,137.3999999999959,2.486663e-05,137.3999999999959,7.40061e-06,137.3999999999959,6.99148e-06
137.4149999999959,4.940445e-05,137.4149999999959,2.487569e-05,137.4149999999959,7.517698e-06,137.4149999999959,6.64861e-06
137.42999999999589,4.77129e-05,137.42999999999589,2.311023e-05,137.42999999999589,7.434793e-06,137.42999999999589,5.881913e-06
137.44499999999587,4.725008e-05,137.44499999999587,2.267083e-05,137.44499999999587,7.463159e-06,137.44499999999587,5.778013e-06
137.45999999999586,4.327028e-05,137.45999999999586,1.789701e-05,137.45999999999586,7.48201e-06,137.45999999999586,5.865124e-06
137.47499999999584,4.240544e-05,137.47499999999584,1.61144e-05,137.47499999999584,7.459384e-06,137.47499999999584,5.785323e-06
137.48999999999583,3.795769e-05,137.48999999999583,1.378409e-05,137.48999999999583,7.465047e-06,137.48999999999583,5.760922e-06
137.50499999999582,3.710569e-05,137.50499999999582,1.334481e-05,137.50499999999582,7.465047e-06,137.50499999999582,5.577042e-06
137.5199999999958,3.694895e-05,137.5199999999958,1.248081e-05,137.5199999999958,7.800928e-06,137.5199999999958,5.48022e-06
137.5349999999958,3.548017e-05,137.5349999999958,1.244124e-05,137.5349999999958,8.166172e-06,137.5349999999958,5.701935e-06
137.54999999999578,3.441196e-05,137.54999999999578,1.173385e-05,137.54999999999578,8.115992e-06,137.54999999999578,5.592176e-06
137.56499999999576,3.450272e-05,137.56499999999576,1.195035e-05,137.56499999999576,8.067247e-06,137.56499999999576,5.549188e-06
137.57999999999575,3.330148e-05,137.57999999999575,1.129465e-05,137.57999999999575,7.586711e-06,137.57999999999575,5.589657e-06
137.59499999999574,3.296347e-05,137.59499999999574,1.078815e-05,137.59499999999574,7.188182e-06,137.59499999999574,5.799914e-06
137.60999999999572,3.080022e-05,137.60999999999572,1.081423e-05,137.60999999999572,6.99148e-06,137.60999999999572,5.763367e-06
137.6249999999957,2.8629e-05,137.6249999999957,1.073711e-05,137.6249999999957,7.579281e-06,137.6249999999957,5.561867e-06
137.6399999999957,2.908009e-05,137.6399999999957,1.015176e-05,137.6399999999957,8.021719e-06,137.6399999999957,5.604757e-06
137.65499999999568,2.983092e-05,137.65499999999568,9.93435e-06,137.65499999999568,7.04567e-06,137.65499999999568,5.738873e-06
137.66999999999567,2.946459e-05,137.66999999999567,9.596809e-06,137.66999999999567,6.902258e-06,137.66999999999567,5.760922e-06
137.68499999999565,2.83009e-05,137.68499999999565,9.627584e-06,137.68499999999565,7.139021e-06,137.68499999999565,5.896265e-06
137.69999999999564,2.794627e-05,137.69999999999564,9.004607e-06,137.69999999999564,7.190141e-06,137.69999999999564,5.454455e-06
137.71499999999563,2.822015e-05,137.71499999999563,8.771629e-06,137.71499999999563,7.68449e-06,137.71499999999563,5.441526e-06
137.7299999999956,2.866637e-05,137.7299999999956,8.601352e-06,137.7299999999956,7.835162e-06,137.7299999999956,5.472503e-06
137.7449999999956,2.740984e-05,137.7449999999956,8.370614e-06,137.7449999999956,7.896054e-06,137.7449999999956,5.508422e-06
137.75999999999559,2.692764e-05,137.75999999999559,8.277538e-06,137.75999999999559,7.968863e-06,137.75999999999559,5.405162e-06
137.77499999999557,2.69245e-05,137.77499999999557,8.282642e-06,137.77499999999557,7.238955e-06,137.77499999999557,5.397339e-06
137.78999999999556,2.594017e-05,137.78999999999556,8.202317e-06,137.78999999999556,7.117283e-06,137.78999999999556,5.315815e-06
137.80499999999554,2.530797e-05,137.80499999999554,8.143716e-06,137.80499999999554,7.099447e-06,137.80499999999554,5.556798e-06
137.81999999999553,2.525057e-05,137.81999999999553,7.97063e-06,137.81999999999553,7.115304e-06,137.81999999999553,5.523745e-06
137.83499999999552,2.604315e-05,137.83499999999552,7.579281e-06,137.83499999999552,7.131124e-06,137.83499999999552,5.363302e-06
137.8499999999955,2.573354e-05,137.8499999999955,7.3106e-06,137.8499999999955,7.806343e-06,137.8499999999955,5.389503e-06
137.8649999999955,2.648723e-05,137.8649999999955,7.421518e-06,137.8649999999955,8.02523e-06,137.8649999999955,5.326404e-06
137.87999999999548,2.676235e-05,137.87999999999548,7.817162e-06,137.87999999999548,7.011599e-06,137.87999999999548,5.490492e-06
137.89499999999546,2.424129e-05,137.89499999999546,7.795508e-06,137.89499999999546,6.961192e-06,137.89499999999546,5.441526e-06
137.90999999999545,2.326453e-05,137.90999999999545,7.788277e-06,137.90999999999545,6.993494e-06,137.90999999999545,5.360675e-06
137.92499999999544,2.337508e-05,137.92499999999544,7.532673e-06,137.92499999999544,6.811867e-06,137.92499999999544,5.420777e-06
137.93999999999542,2.23271e-05,137.93999999999542,7.929877e-06,137.93999999999542,6.838698e-06,137.93999999999542,5.173461e-06
137.9549999999954,2.244729e-05,137.9549999999954,7.854914e-06,137.9549999999954,6.838698e-06,137.9549999999954,5.192486e-06
137.9699999999954,2.178874e-05,137.9699999999954,8.042764e-06,137.9699999999954,5.960421e-06,137.9699999999954,5.289249e-06
137.98499999999538,2.131553e-05,137.98499999999538,7.863876e-06,137.98499999999538,5.8867e-06,137.98499999999538,5.420777e-06
137.99999999999537,2.238822e-05,137.99999999999537,8.321666e-06,137.99999999999537,5.979298e-06,137.99999999999537,5.418178e-06
138.01499999999535,2.246987e-05,138.01499999999535,8.43766e-06,138.01499999999535,7.252564e-06,138.01499999999535,5.577042e-06
138.02999999999534,2.234918e-05,138.02999999999534,8.440998e-06,138.02999999999534,7.318304e-06,138.02999999999534,5.574516e-06
138.04499999999533,2.227088e-05,138.04499999999533,8.42262e-06,138.04499999999533,7.345202e-06,138.04499999999533,5.457037e-06
138.0599999999953,2.264783e-05,138.0599999999953,9.13507e-06,138.0599999999953,7.392992e-06,138.0599999999953,5.549188e-06
138.0749999999953,2.260363e-05,138.0749999999953,9.001478e-06,138.0749999999953,8.105571e-06,138.0749999999953,5.533936e-06
138.08999999999529,2.025002e-05,138.08999999999529,9.152018e-06,138.08999999999529,8.171345e-06,138.08999999999529,5.493057e-06
138.10499999999527,2.232269e-05,138.10499999999527,9.142777e-06,138.10499999999527,7.304818e-06,138.10499999999527,5.459618e-06
138.11999999999526,2.249117e-05,138.11999999999526,9.805902e-06,138.11999999999526,7.425313e-06,138.11999999999526,5.454455e-06
138.13499999999524,2.513875e-05,138.13499999999524,1.391631e-05,138.13499999999524,7.324076e-06,138.13499999999524,5.289249e-06
138.14999999999523,2.505456e-05,138.14999999999523,1.998816e-05,138.14999999999523,8.713623e-06,138.14999999999523,5.384273e-06
138.16499999999522,2.577292e-05,138.16499999999522,2.771597e-05,138.16499999999522,1.009052e-05,138.16499999999522,5.457037e-06
138.1799999999952,2.671652e-05,138.1799999999952,3.357404e-05,138.1799999999952,1.027451e-05,138.1799999999952,5.604757e-06
138.1949999999952,2.875224e-05,138.1949999999952,3.688561e-05,138.1949999999952,1.016701e-05,138.1949999999952,5.826569e-06
138.20999999999518,3.550636e-05,138.20999999999518,4.116346e-05,138.20999999999518,1.279954e-05,138.20999999999518,6.437625e-06
